# Messung der Generatorspannung
# 
# Spalte1: t [s]
# Spalte2: Generatorspannung U [mV]
# Spalte3: Spulenstrom I_S [A]
# Spalte4: Magnetische Flussdichte B [mT]
0	17.43	0	14.25
1	17.43	0	14.25
2	17.445	0	14.25
3	17.46	0	14.25
4	17.475	0	14.25
5	18.195	0	14.25
6	18.675	0	14.25
7	18.645	0	14.25
8	18.375	0	14.25
9	18.015	0	14.25
10	17.64	0	14.25
11	17.265	0	14.25
12	16.905	0	14.25
13	16.56	0	14.4
14	16.245	0	14.25
15	15.945	0	14.25
16	15.66	0	14.25
17	15.375	0	14.25
18	15.12	0	14.25
19	14.88	0	14.25
20	14.64	0	14.25
21	14.43	0	14.25
22	14.22	0	14.25
23	14.01	0	14.25
24	13.83	0	14.25
25	13.635	0	14.25
26	13.47	0	14.25
27	13.305	0	14.25
28	13.155	0	14.25
29	13.005	0	14.25
30	12.87	0	14.25
31	12.735	0	14.25
32	12.6	0	14.25
33	12.48	0	14.25
34	12.36	0	14.25
35	12.255	0	14.25
36	12.135	0	14.25
37	12.03	0	14.25
38	11.925	0	14.25
39	11.82	0	14.25
40	11.715	0	14.25
41	11.61	0	14.25
42	11.52	0	14.25
43	11.415	0	14.25
44	11.325	0	14.25
45	11.22	0	14.25
46	11.115	0	14.25
47	11.025	0	14.25
48	10.935	0	14.25
49	10.845	0	14.25
50	10.77	0	14.25
51	10.71	0	14.25
52	10.65	0	14.25
53	10.575	0	14.25
54	10.515	0	14.25
55	10.455	0	14.25
56	10.395	0	14.25
57	10.32	0	14.25
58	10.26	0	14.25
59	10.215	0	14.25
60	10.155	0	14.25
61	10.125	0	14.25
62	10.08	0	14.25
63	10.05	0	14.25
64	10.02	0	14.25
65	9.99	0	14.25
66	9.96	0	14.25
67	9.93	0	14.25
68	9.9	0	14.25
69	9.87	0	14.25
70	9.84	0	14.25
71	9.81	0	14.25
72	9.795	0	14.25
73	9.765	0	14.25
74	9.735	0	14.25
75	9.705	0	14.25
76	9.69	0	14.25
77	9.66	0	14.25
78	9.63	0	14.25
79	9.615	0	14.25
80	9.585	0	14.25
81	9.57	0	14.25
82	9.54	0	14.25
83	9.525	0	14.25
84	9.51	0	14.25
85	9.48	0	14.25
86	9.465	0	14.25
87	9.435	0	14.25
88	9.405	0	14.25
89	9.39	0	14.25
90	9.36	0	14.25
91	9.33	0	14.25
92	9.315	0	14.25
93	9.285	0	14.25
94	9.27	0	14.25
95	9.24	0	14.25
96	9.225	0	14.25
97	9.195	0	14.25
98	9.18	0	14.25
99	9.15	0	14.25
100	9.135	0	14.25
101	9.105	0	14.25
102	9.09	0	14.25
103	9.075	0	14.25
104	9.06	0	14.25
105	9.045	0	14.25
106	9.03	0	14.25
107	9.015	0	14.25
108	9	0	14.25
109	8.985	0	14.25
110	8.97	0	14.25
111	8.955	0	14.25
112	8.94	0	14.25
113	8.925	0	14.25
114	8.91	0	14.25
115	8.88	0	14.25
116	8.865	0	14.25
117	8.85	0	14.25
118	8.835	0	14.25
119	8.82	0	14.25
120	8.805	0	14.25
121	8.79	0	14.25
122	8.76	0	14.25
123	8.745	0	14.25
124	8.73	0	14.25
125	8.715	0	14.25
126	8.7	0	14.25
127	8.67	0	14.25
128	8.655	0	14.25
129	8.64	0	14.25
130	8.61	0	14.25
131	8.595	0	14.25
132	8.58	0	14.25
133	8.565	0	14.25
134	8.55	0	14.25
135	8.55	0	14.25
136	8.535	0	14.25
137	8.535	0	14.25
138	8.52	0	14.25
139	8.505	0	14.25
140	8.49	0	14.25
141	8.49	0	14.25
142	8.475	0	14.25
143	8.475	0	14.25
144	8.475	0	14.25
145	8.46	0	14.25
146	8.445	0	14.25
147	8.43	0	14.25
148	8.415	0	14.25
149	8.4	0	14.25
150	8.385	0	14.25
151	8.37	0	14.25
152	8.355	0	14.25
153	8.34	0	14.25
154	8.325	0	14.25
155	8.31	0	14.25
156	8.31	0	14.25
157	8.295	-0.0015	14.25
158	8.28	0	14.25
159	8.265	0	14.25
160	8.25	0	14.25
161	8.25	0	14.25
162	8.235	0	14.25
163	8.22	0	14.25
164	8.205	0	14.25
165	8.205	0	14.25
166	8.19	0	14.25
167	8.175	0	14.25
168	8.16	0	14.25
169	8.16	0	14.25
170	8.16	0	14.25
171	8.145	0	14.25
172	8.13	0	14.25
173	8.13	0	14.25
174	8.13	0	14.25
175	8.115	0	14.25
176	8.115	0	14.25
177	8.115	0	14.25
178	8.115	0	14.25
179	8.115	0	14.25
180	8.1	0	14.25
181	8.1	0	14.25
182	8.1	0	14.25
183	8.085	0	14.25
184	8.085	0	14.25
185	8.07	0	14.25
186	8.07	0	14.25
187	8.055	0	14.25
188	8.055	0	14.25
189	8.04	0	14.25
190	8.04	0	14.25
191	8.04	0	14.25
192	8.025	0	14.25
193	8.01	0	14.25
194	8.01	0	14.25
195	7.995	0	14.25
196	7.98	0	14.25
197	7.965	0	14.25
198	7.95	0	14.25
199	7.935	0	14.25
200	7.92	0	14.25
201	7.905	0	14.25
202	7.905	0	14.25
203	7.89	0	14.25
204	7.875	0	14.25
205	7.875	0	14.25
206	7.86	0	14.25
207	7.845	0	14.25
208	7.83	0	14.25
209	7.83	0	14.25
210	7.815	0	14.25
211	7.8	0	14.25
212	7.785	0	14.25
213	7.77	0	14.25
214	7.755	0	14.25
215	7.74	0	14.25
216	7.725	0	14.25
217	7.725	0	14.25
218	7.71	0	14.25
219	7.71	0	14.25
220	7.695	0	14.25
221	7.695	0	14.25
222	7.695	0	14.25
223	7.68	0	14.25
224	7.68	0	14.25
225	7.665	0	14.25
226	7.665	0	14.25
227	7.65	0	14.25
228	7.65	0	14.25
229	7.65	0	14.25
230	7.65	0	14.25
231	7.65	0	14.25
232	7.635	0	14.25
233	7.635	0	14.25
234	7.635	0	14.25
235	7.635	0	14.25
236	7.62	-0.0015	14.25
237	7.62	0	14.25
238	7.605	0	14.25
239	7.605	0	14.25
240	7.59	0	14.25
241	7.59	0	14.25
242	7.575	0	14.25
243	7.575	0	14.25
244	7.575	0	14.25
245	7.56	0	14.25
246	7.56	0	14.25
247	7.545	0	14.25
248	7.53	0	14.25
249	7.53	0	14.25
250	7.53	0	14.25
251	7.53	0	14.25
252	7.53	0	14.25
253	7.53	0	14.25
254	7.53	0	14.25
255	7.545	0	14.25
256	7.545	0	14.25
257	7.545	0	14.25
258	7.545	0	14.25
259	7.53	0	14.25
260	7.515	0	14.25
261	7.5	0	14.25
262	7.485	0	14.25
263	7.47	0	14.25
264	7.47	0	14.25
265	7.455	0	14.25
266	7.455	0	14.25
267	7.44	0	14.25
268	7.425	0	14.25
269	7.41	0	14.25
270	7.395	0	14.25
271	7.38	0	14.25
272	7.365	0	14.25
273	7.35	0	14.25
274	7.335	0	14.25
275	7.335	0	14.25
276	7.32	0	14.25
277	7.32	0	14.25
278	7.32	0	14.25
279	7.32	0	14.25
280	7.32	0	14.25
281	7.32	0	14.25
282	7.32	0	14.25
283	7.305	0	14.25
284	7.305	0	14.25
285	7.305	0	14.25
286	7.29	0	14.25
287	7.29	0	14.25
288	7.29	0	14.25
289	7.29	0	14.25
290	7.29	0	14.25
291	7.29	0	14.25
292	7.275	0	14.25
293	7.26	0	14.25
294	7.245	0	14.25
295	7.23	0	14.25
296	7.23	0	14.25
297	7.215	0	14.25
298	7.215	0	14.25
299	7.215	0	14.25
300	7.215	0	14.25
301	7.2	0	14.25
302	7.2	0	14.25
303	7.2	0	14.25
304	7.2	0	14.25
305	7.185	0	14.25
306	7.185	0	14.25
307	7.185	0	14.25
308	7.185	0	14.25
309	7.185	0	14.25
310	7.185	0	14.25
311	7.185	0	14.25
312	7.17	0	14.25
313	7.17	0	14.25
314	7.17	0	14.25
315	7.17	0	14.25
316	7.17	0	14.25
317	7.17	0	14.25
318	7.185	0	14.25
319	7.185	0	14.25
320	7.185	0	14.25
321	7.185	0	14.25
322	7.185	0	14.25
323	7.2	0	14.25
324	7.2	0	14.25
325	7.2	0	14.25
326	7.2	0	14.25
327	7.2	0	14.25
328	7.2	0	14.25
329	7.575	0	14.25
330	8.055	0.1905	41.1
331	8.055	0.2865	55.05
332	8.055	0.285	55.05
333	8.055	0.2865	55.2
334	8.04	0.2865	55.05
335	8.04	0.285	55.05
336	8.055	0.285	55.2
337	8.055	0.2865	55.05
338	8.055	0.285	55.2
339	8.055	0.285	55.2
340	8.055	0.285	55.2
341	8.04	0.2865	55.2
342	8.04	0.285	55.2
343	8.04	0.285	55.2
344	8.025	0.288	55.2
345	8.01	0.2865	55.2
346	8.01	0.285	55.2
347	7.995	0.2865	55.2
348	7.995	0.285	55.2
349	7.98	0.285	55.2
350	7.98	0.2865	55.2
351	7.98	0.2865	55.2
352	7.995	0.285	55.2
353	7.98	0.285	55.2
354	7.965	0.2865	55.2
355	7.665	0.2865	55.2
356	7.11	0.117	31.2
357	7.11	0	14.4
358	7.11	-0.0015	14.4
359	7.11	0	14.4
360	7.11	0	14.4
361	7.11	0	14.4
362	7.11	0	14.4
363	7.095	0	14.4
364	7.095	0	14.4
365	7.095	0	14.4
366	7.095	0	14.4
367	7.095	0	14.4
368	7.08	0	14.4
369	7.08	0	14.4
370	7.08	0	14.4
371	7.065	0	14.4
372	7.155	0.0045	15
373	7.17	0.039	19.5
374	7.17	0.0405	19.65
375	7.17	0.0405	19.65
376	7.17	0.0405	19.65
377	7.17	0.0405	19.65
378	7.17	0.0405	19.65
379	7.17	0.0405	19.65
380	7.185	0.0405	19.65
381	7.2	0.0405	19.65
382	7.215	0.0405	19.65
383	7.245	0.0405	19.65
384	7.275	0.0405	19.65
385	7.305	0.0405	19.65
386	7.365	0.0405	19.65
387	7.44	0.0405	19.65
388	7.515	0.0405	19.65
389	7.515	0.0375	19.2
390	7.59	0	14.25
391	7.665	0	14.4
392	7.695	0	14.4
393	7.71	0	14.4
394	7.695	0	14.4
395	7.65	0	14.4
396	7.575	0	14.4
397	7.53	0	14.4
398	7.5	0	14.4
399	7.47	0	14.4
400	7.44	0	14.4
401	7.395	0	14.4
402	7.365	0	14.4
403	7.335	-0.0015	14.4
404	7.305	0	14.4
405	7.29	0	14.4
406	7.275	0	14.4
407	7.245	0	14.4
408	7.23	0	14.4
409	7.215	0	14.4
410	7.2	0	14.4
411	7.185	0	14.4
412	7.155	0	14.4
413	7.14	0	14.4
414	7.125	0	14.4
415	7.11	0	14.4
416	7.08	0	14.4
417	7.065	0	14.4
418	7.065	0	14.4
419	7.05	0	14.4
420	7.035	0	14.4
421	7.035	0	14.4
422	7.02	0	14.4
423	7.005	0	14.4
424	7.005	0	14.4
425	6.99	0	14.4
426	6.99	0	14.4
427	6.975	0	14.4
428	6.975	0	14.4
429	6.96	0	14.4
430	6.96	0	14.4
431	6.945	0	14.4
432	6.93	0	14.4
433	6.93	0	14.4
434	6.93	0	14.4
435	6.915	0	14.4
436	6.915	0	14.4
437	6.915	0	14.4
438	6.915	0	14.4
439	6.9	0	14.4
440	6.9	-0.0015	14.4
441	6.9	0	14.4
442	6.885	0	14.4
443	6.885	0	14.4
444	6.885	0	14.4
445	6.885	0	14.4
446	6.87	0	14.4
447	6.87	0	14.4
448	6.885	0	14.4
449	6.87	0	14.4
450	6.885	0	14.4
451	6.87	0	14.4
452	6.87	0	14.4
453	6.87	0	14.4
454	6.855	0	14.4
455	6.855	0	14.4
456	6.855	0	14.4
457	6.84	0	14.4
458	6.84	0	14.4
459	6.825	0	14.4
460	6.81	0	14.4
461	6.81	0	14.4
462	6.795	0	14.4
463	6.795	0	14.4
464	6.795	0	14.4
465	6.78	0	14.4
466	6.78	0	14.4
467	6.765	0	14.4
468	6.765	0	14.4
469	6.75	0	14.4
470	6.75	0	14.4
471	6.735	0	14.4
472	6.735	0	14.4
473	6.72	0	14.4
474	6.705	0	14.4
475	6.705	0	14.4
476	6.705	0	14.4
477	6.69	0	14.4
478	6.69	0	14.4
479	6.675	0	14.4
480	6.675	0	14.4
481	6.675	0	14.4
482	6.675	0	14.4
483	6.66	0	14.4
484	6.66	0	14.4
485	6.66	0	14.4
486	6.645	0	14.4
487	6.645	0	14.4
488	6.645	0	14.4
489	6.645	0	14.4
490	6.63	0	14.4
491	6.63	0	14.4
492	6.63	0	14.4
493	6.63	0	14.4
494	6.615	0	14.4
495	6.615	0	14.4
496	6.615	0	14.4
497	6.6	0	14.4
498	6.6	0	14.4
499	6.585	0	14.4
500	6.585	0	14.4
501	6.585	0	14.4
502	6.57	0	14.4
503	6.57	0	14.4
504	6.57	0	14.4
505	6.57	0	14.4
506	6.57	-0.0015	14.4
507	6.57	0	14.4
508	6.57	0	14.4
509	6.555	0	14.4
510	6.555	0	14.4
511	6.555	0	14.4
512	6.54	0	14.4
513	6.54	0	14.4
514	6.525	0	14.4
515	6.51	0	14.4
516	6.51	0	14.4
517	6.51	0	14.4
518	6.51	0	14.4
519	6.51	0	14.4
520	6.495	0	14.4
521	6.495	0	14.4
522	6.495	0	14.4
523	6.495	0	14.4
524	6.495	0	14.4
525	6.495	0	14.4
526	6.48	0	14.4
527	6.48	0	14.4
528	6.48	0	14.4
529	6.465	0	14.4
530	6.465	0	14.4
531	6.465	0	14.4
532	6.45	0	14.4
533	6.45	0	14.4
534	6.435	0	14.4
535	6.435	0	14.4
536	6.435	0	14.4
537	6.42	0	14.4
538	6.42	0	14.4
539	6.405	0	14.4
540	6.405	0	14.4
541	6.405	0	14.4
542	6.405	0	14.4
543	6.39	0	14.4
544	6.39	0	14.4
545	6.39	0	14.4
546	6.39	0	14.4
547	6.375	0	14.4
548	6.375	0	14.4
549	6.375	0	14.4
550	6.36	0	14.4
551	6.36	0	14.4
552	6.36	0	14.4
553	6.36	0	14.4
554	6.345	0	14.4
555	6.345	0	14.4
556	6.345	0	14.4
557	6.33	0	14.4
558	6.33	0	14.4
559	6.315	0	14.4
560	6.3	0	14.4
561	6.3	0	14.4
562	6.285	0	14.4
563	6.27	0	14.4
564	6.255	0	14.4
565	6.255	0	14.4
566	6.24	0	14.4
567	6.225	0	14.4
568	6.225	0	14.4
569	6.225	0	14.55
570	6.24	0.003	14.7
571	6.255	0.0075	15.3
572	6.285	0.0165	16.65
573	6.3	0.0255	17.7
574	6.315	0.033	18.9
575	6.315	0.042	19.8
576	6.3	0.0435	19.95
577	6.285	0.0495	20.85
578	6.24	0.06	22.05
579	6.15	0.063	22.65
580	6.09	0.0705	23.7
581	6.03	0.0735	24.3
582	5.955	0.081	25.2
583	5.895	0.09	26.4
584	5.985	0.1005	28.05
585	6.06	0.1125	29.85
586	6.12	0.1215	30.9
587	6.195	0.129	32.25
588	6.255	0.141	33.9
589	6.315	0.1515	35.55
590	6.36	0.1665	37.65
591	6.42	0.1755	38.85
592	6.42	0.1875	40.2
593	6.45	0.1875	40.65
594	6.495	0.195	41.7
595	6.555	0.21	43.65
596	6.585	0.2175	44.85
597	6.615	0.2265	46.2
598	6.645	0.2355	47.7
599	6.69	0.24	48.3
600	6.75	0.2595	51.15
601	6.78	0.2715	52.95
602	6.81	0.2835	54.6
603	6.84	0.291	55.65
604	6.87	0.3045	57.75
605	6.915	0.3105	58.65
606	6.975	0.3255	61.2
607	7.005	0.3405	63.3
608	7.02	0.345	64.05
609	7.065	0.3555	65.7
610	7.095	0.366	67.5
611	7.14	0.3765	68.85
612	7.185	0.3885	70.95
613	7.23	0.4005	72.75
614	7.26	0.414	74.85
615	7.305	0.4245	76.2
616	7.365	0.444	78.9
617	7.41	0.4635	81.6
618	7.455	0.477	83.7
619	7.485	0.4935	85.95
620	7.53	0.5085	87.6
621	7.575	0.528	90.3
622	7.59	0.5355	91.35
623	7.62	0.543	92.1
624	7.635	0.543	92.25
625	7.665	0.5505	93.45
626	7.68	0.5595	94.35
627	7.71	0.57	95.55
628	7.74	0.5775	96.3
629	7.77	0.5895	97.65
630	7.785	0.597	98.55
631	7.815	0.6045	99.6
632	7.83	0.6135	100.5
633	7.86	0.6225	101.4
634	7.89	0.633	102.9
635	7.92	0.648	104.4
636	7.95	0.66	105.6
637	7.95	0.666	106.05
638	7.965	0.672	106.8
639	7.98	0.6795	107.55
640	7.98	0.6825	108
641	7.995	0.69	108.75
642	8.01	0.699	109.65
643	8.01	0.7065	110.55
644	8.025	0.7125	111
645	8.025	0.72	111.6
646	8.04	0.7245	112.2
647	8.04	0.7335	112.95
648	8.055	0.7395	113.7
649	8.055	0.747	114.3
650	8.07	0.75	114.75
651	8.1	0.765	115.8
652	8.13	0.777	116.85
653	8.145	0.789	118.05
654	8.175	0.801	119.4
655	8.205	0.8205	120.9
656	8.235	0.834	122.25
657	8.265	0.8505	123.75
658	8.28	0.8595	124.65
659	8.325	0.8835	126.45
660	8.355	0.9015	127.95
661	8.4	0.924	129.9
662	8.415	0.945	131.7
663	8.445	0.9615	133.05
664	8.46	0.9795	134.55
665	8.475	0.993	135.45
666	8.475	0.999	135.75
667	8.46	1.0005	136.05
668	8.475	1.005	136.5
669	8.49	1.02	137.55
670	8.505	1.0305	138.6
671	8.52	1.038	139.05
672	8.535	1.053	140.25
673	8.55	1.065	141.15
674	8.595	1.0845	142.65
675	8.595	1.101	143.85
676	8.61	1.1085	144.45
677	8.625	1.125	145.65
678	8.655	1.14	146.85
679	8.67	1.1595	148.2
680	8.685	1.1775	149.55
681	8.7	1.191	150.6
682	8.7	1.2075	151.65
683	8.715	1.2195	152.55
684	8.73	1.233	153.6
685	8.745	1.245	154.05
686	8.76	1.26	154.8
687	8.79	1.2795	156.3
688	8.805	1.2975	157.5
689	8.82	1.314	158.55
690	8.82	1.3305	159.6
691	8.85	1.344	160.5
692	8.85	1.356	161.25
693	8.865	1.371	162.15
694	8.88	1.386	163.05
695	8.91	1.4055	164.25
696	8.925	1.4145	164.7
697	8.94	1.4265	165.45
698	8.955	1.4415	166.35
699	8.985	1.4565	167.4
700	9	1.4715	168.3
701	9.015	1.4835	168.9
702	9.015	1.5	169.95
703	9.045	1.518	171
704	9.045	1.536	172.05
705	9.045	1.56	173.25
706	9.075	1.5885	174.75
707	9.105	1.6095	176.1
708	9.105	1.6305	177.3
709	9.135	1.6545	178.5
710	9.165	1.671	179.4
711	9.165	1.6845	180.15
712	9.18	1.7055	181.35
713	9.21	1.7205	182.1
714	9.21	1.7295	182.7
715	9.225	1.737	182.85
716	9.24	1.7505	183.6
717	9.255	1.767	184.5
718	9.285	1.7925	185.85
719	9.33	1.8165	187.05
720	9.375	1.83	187.65
721	9.39	1.8375	188.1
722	9.405	1.8375	188.1
723	9.405	1.839	188.1
724	9.405	1.8375	188.1
725	9.405	1.8375	188.1
726	9.405	1.8375	188.1
727	9.42	1.8375	188.1
728	9.42	1.8375	188.1
729	9.42	1.836	188.1
730	9.42	1.8375	188.1
731	9.42	1.836	188.1
732	9.42	1.836	187.95
733	9.42	1.8345	187.95
734	9.405	1.8345	187.95
735	9.405	1.833	187.95
736	9.42	1.8345	187.95
737	9.405	1.8315	187.95
738	9.405	1.833	187.8
739	9.39	1.8315	187.95
740	9.39	1.83	187.8
741	9.39	1.8165	187.2
742	9.315	1.677	180.6
743	9.135	1.455	168.75
744	8.835	1.218	154.35
745	8.535	1.0425	142.05
746	8.34	0.924	132.9
747	8.04	0.708	113.7
748	7.65	0.5295	94.2
749	7.185	0.3285	65.85
750	6.495	0.111	31.95
751	5.865	0.003	15.15
752	5.745	0	14.85
753	5.745	0	14.85
754	5.76	0	14.85
755	5.76	0	14.85
756	5.76	0	14.85
757	5.76	0	14.85
758	5.775	0	14.85
759	5.775	0	14.85
760	5.775	0	14.85
761	5.775	0	14.85
762	5.79	0	14.85
763	5.79	0	14.85
764	5.79	0	14.85
765	5.79	0	14.85
766	5.79	0	14.85
767	5.79	0	14.85
768	5.79	0	14.85
769	5.775	0	14.85
770	5.775	0	14.85
771	5.775	0	14.85
772	5.775	0	14.85
773	5.775	0	14.85
774	5.76	0	14.85
775	5.76	0	14.85
776	5.76	0	14.85
777	5.76	0	14.85
778	5.76	0	14.85
779	5.76	0	14.85
780	5.76	0	14.85
781	5.745	0	14.85
782	5.745	0	14.85
783	5.745	0	14.85
784	5.745	0	14.85
785	5.73	0	14.85
786	5.73	0	14.85
787	5.73	0	14.85
788	5.73	0	14.85
789	5.73	0	14.85
790	5.73	0	14.85
791	5.73	0	14.85
792	5.73	0	14.85
793	5.73	0	14.85
794	5.73	0	14.85
795	5.73	0	14.85
796	5.745	0	14.85
797	5.745	0	14.85
798	5.745	0	14.85
799	5.745	0	14.85
800	5.745	0	14.85
801	5.745	0	14.85
802	5.745	0	14.85
803	5.745	0	14.85
804	5.745	0	14.85
805	5.73	0	14.85
806	5.73	0	14.85
807	5.715	-0.0015	14.85
808	5.715	0	14.85
809	5.715	0	14.85
810	5.715	0	14.85
811	5.715	0	14.85
812	5.73	0	14.85
813	5.73	0	14.85
814	5.73	0	14.85
815	5.73	0	14.85
816	5.73	0	14.85
817	5.73	0	14.85
818	5.73	0	14.85
819	5.745	0	14.85
820	5.745	0	14.85
821	5.745	0	14.85
822	5.76	0	14.85
823	5.76	0	14.85
824	5.76	0	14.85
825	5.775	0	14.85
826	5.775	0	14.85
827	5.775	0	14.85
828	5.775	0	14.85
829	5.775	0	14.85
830	5.775	0	14.85
831	5.775	-0.0015	14.85
832	5.79	0	14.85
833	5.79	0	14.85
834	5.805	0	14.85
835	5.805	0	14.85
836	5.805	0	14.85
837	5.805	0	14.85
838	5.805	0	14.85
839	5.805	0	14.85
840	5.805	0	14.85
841	5.805	0	14.85
842	5.805	0	14.85
843	5.805	0	14.85
844	5.82	0	14.85
845	5.805	0	14.85
846	5.805	0	14.85
847	5.805	0	14.85
848	5.805	0	14.85
849	5.79	0	14.85
850	5.79	0	14.85
851	5.775	0	14.85
852	5.775	0	14.85
853	5.775	0	14.85
854	5.76	0	14.85
855	5.745	0	14.85
856	5.73	0	14.85
857	5.7	0	14.85
858	5.685	0	14.85
859	5.67	0	14.85
860	5.655	0	14.85
861	5.625	0	14.85
862	5.595	0	14.85
863	5.565	0	14.85
864	5.535	0	14.85
865	5.505	0	14.85
866	5.49	0	14.85
867	5.475	0	14.85
868	5.46	0	14.85
869	5.43	0	14.85
870	5.43	0	14.85
871	5.415	0	14.85
872	5.415	0	14.85
873	5.4	0	14.85
874	5.4	0	14.85
875	5.4	0	14.85
876	5.415	0	14.85
877	5.415	0	14.85
878	5.43	0	14.85
879	5.46	0	14.85
880	5.475	0	14.85
881	5.49	0	14.85
882	5.505	0	14.85
883	5.52	0	14.85
884	5.535	0	14.85
885	5.565	0	14.85
886	5.58	0	14.85
887	5.595	0	14.85
888	5.61	0	14.85
889	5.625	0	14.85
890	5.64	0	14.85
891	5.655	0	14.85
892	5.67	-0.0015	14.85
893	5.685	0	14.85
894	5.7	0	14.85
895	5.715	0	14.85
896	5.73	0	14.85
897	5.745	-0.0015	14.85
898	5.76	0	14.85
899	5.775	0	14.85
900	5.79	0	14.85
901	5.79	0	14.85
902 5.805	0	14.85
903	5.79	0	14.85
904	5.79	-0.0015	14.85
905	5.79	0	14.85
906	5.775	0	14.85
907	5.745	0	14.85
908	5.73	0	14.85
909	5.73	0	14.85
910	5.73	0	14.85
911	5.73	0	14.85
912	5.715	0	14.85
913	5.715	0	14.85
914	5.715	0	14.85
915	5.715	0	14.85
916	5.715	0	14.85
917	5.715	0	14.85
918	5.715	0	14.85
919	5.715	0	14.85
920	5.7	0	14.85
921	5.7	0	14.85
922	5.7	0	14.85
923	5.685	0	14.85
924	5.685	0	14.85
925	5.67	0	14.85
926	5.655	0	14.85
927	5.655	0	14.85
928	5.64	0	14.85
929	5.64	0	14.85
930	5.64	0	14.85
931	5.64	0	14.85
932	5.64	0	14.85
933	5.625	0	14.85
934	5.625	0	14.85
935	5.625	0	14.85
936	5.61	0	14.85
937	5.61	0	14.85
938	5.595	0	14.85
939	5.595	0	14.85
940	5.58	0	14.85
941	5.565	0	14.85
942	5.565	0	14.85
943	5.55	0	14.85
944	5.55	0	14.85
945	5.535	0	14.85
946	5.535	0	14.85
947	5.535	0	14.85
948	5.52	0	14.85
949	5.535	0	14.85
950	5.535	0	14.85
951	5.535	0	14.85
952	5.535	0	14.85
953	5.535	0	14.85
954	5.535	0	14.85
955	5.55	0	14.85
956	5.55	0	14.85
957	5.535	0	14.85
958	5.55	0	14.85
959	5.55	0	14.85
960	5.535	0	14.85
961	5.535	0	14.85
962	5.52	0	14.85
963	5.49	0	14.85
964	5.475	0	14.85
965	5.46	0	14.85
966	5.46	0	14.85
967	5.46	0	14.85
968	5.46	0	14.85
969	5.46	0	14.85
970	5.46	0	14.85
971	5.46	0	14.85
972	5.46	0	14.85
973	5.46	0	14.85
974	5.475	0	14.85
975	5.475	0	14.85
976	5.475	0	14.85
977	5.49	0	14.85
978	5.49	0	14.85
979	5.49	0	14.85
980	5.49	0	14.85
981	5.505	0	14.85
982	5.505	0	14.85
983	5.52	0	14.85
984	5.52	0	14.85
985	5.535	0	14.85
986	5.55	0	14.85
987	5.55	0	14.85
988	5.565	0	14.85
989	5.565	0	14.85
990	5.58	0	14.85
991	5.58	0	14.85
992	5.595	0	14.85
993	5.61	0	14.85
994	5.625	0	14.85
995	5.625	0	14.85
996	5.64	0	14.85
997	5.64	0	14.85
998	5.655	0	14.85
999	5.655	0	14.85
1000	5.655	-0.0015	14.85
1001	5.67	0	14.85
1002	5.67	0	14.85
1003	5.67	0	14.85
1004	5.67	0	14.85
1005	5.67	0	14.85
1006	5.67	0	14.85
1007	5.685	0	14.85
1008	5.685	0	14.85
1009	5.685	0	14.85
1010	5.685	0	14.85
1011	5.685	0	14.85
1012	5.7	0	14.85
1013	5.7	0	14.85
1014	5.7	0	14.85
1015	5.7	0	14.85
1016	5.7	0	14.85
1017	5.7	0	14.85
1018	5.685	0	14.85
1019	5.685	0	14.85
1020	5.685	0	14.85
1021	5.685	0	14.85
1022	5.685	0	14.85
1023	5.685	0	14.85
1024	5.685	0	14.85
1025	5.67	0	14.85
1026	5.67	0	14.85
1027	5.67	0	14.85
1028	5.655	0	14.85
1029	5.655	0	14.85
1030	5.64	0	14.85
1031	5.625	0	14.85
1032	5.625	0	14.85
1033	5.625	0	14.85
1034	5.61	0	14.85
1035	5.61	0	14.85
1036	5.595	0	14.85
1037	5.595	0	14.85
1038	5.595	0	14.85
1039	5.61	0	14.85
1040	5.61	0	14.85
1041	5.61	0	14.85
1042	5.595	0	14.85
1043	5.595	0	14.85
1044	5.58	-0.0015	14.85
1045	5.565	0	14.85
1046	5.565	0	14.85
1047	5.565	0	14.85
1048	5.55	-0.0015	14.85
1049	5.535	0	14.85
1050	5.535	0	14.85
1051	5.52	0	14.85
1052	5.52	0	14.85
1053	5.505	0	14.85
1054	5.505	0	14.85
1055	5.49	0	14.85
1056	5.49	0	14.85
1057	5.475	0	14.85
1058	5.475	0	14.85
1059	5.475	0	14.85
1060	5.475	0	14.85
1061	5.475	0	14.85
1062	5.475	0	14.85
1063	5.475	0	14.85
1064	5.475	0	14.85
1065	5.46	0	14.85
1066	5.46	0	14.85
1067	5.46	0	14.85
1068	5.445	0	14.85
1069	5.445	0	14.85
1070	5.445	0	14.85
1071	5.43	0	14.85
1072	5.43	0	14.85
1073	5.43	0	14.85
1074	5.415	0	14.85
1075	5.415	0	14.85
1076	5.415	0	14.85
1077	5.4	0	14.85
1078	5.4	0	14.85
1079	5.4	0	14.85
1080	5.4	0	14.85
1081	5.4	0	14.85
1082	5.385	0	14.85
1083	5.385	0	14.85
1084	5.37	0	14.85
1085	5.37	0	14.85
1086	5.37	0	14.85
1087	5.355	0	14.85
1088	5.34	0	14.85
1089	5.34	0	14.85
1090	5.325	0	14.85
1091	5.325	0	14.85
1092	5.325	0	14.85
1093	5.325	0	14.85
1094	5.31	0	14.85
1095	5.31	0	14.85
1096	5.31	0	14.85
1097	5.31	0	14.85
1098	5.31	0	14.85
1099	5.31	0	14.85
1100	5.31	0	14.85
1101	5.31	0	14.85
1102	5.31	0	14.85
1103	5.31	0	14.85
1104	5.31	0	14.85
1105	5.31	0	14.85
1106	5.31	0	14.85
1107	5.31	0	14.85
1108	5.31	-0.0015	14.85
1109	5.31	0	14.85
1110	5.31	0	14.85
1111	5.325	0	14.85
1112	5.31	0	14.85
1113	5.325	0	14.85
1114	5.325	0	14.85
1115	5.325	0	14.85
1116	5.34	0	14.85
1117	5.34	0	14.85
1118	5.355	0	14.85
1119	5.355	0	14.85
1120	5.355	0	14.85
1121	5.355	0	14.85
1122	5.37	0	14.85
1123	5.37	0	14.85
1124	5.37	0	14.85
1125	5.37	0	14.85
1126	5.37	0	14.85
1127	5.385	0	14.85
1128	5.37	0	14.85
1129	5.37	0	14.85
1130	5.37	0	14.85
1131	5.355	0	14.85
1132	5.37	0	14.85
1133	5.355	0	14.85
1134	5.355	0	14.85
1135	5.355	0	14.85
1136	5.355	0	14.85
1137	5.355	0	14.85
1138	5.355	0	14.85
1139	5.355	0	14.85
1140	5.355	0	14.85
1141	5.355	0	14.85
1142	5.355	0	14.85
1143	5.355	0	14.85
1144	5.355	0	14.85
1145	5.37	0	14.85
1146	5.37	0	14.85
1147	5.37	0	14.85
1148	5.37	0	14.85
1149	5.37	0	14.85
1150	5.385	0	14.85
1151	5.385	0	14.85
1152	5.385	0	14.85
1153	5.385	0	14.85
1154	5.385	0	14.85
1155	5.385	0	14.85
1156	5.385	0	14.85
1157	5.385	0	14.85
1158	5.385	0	14.85
1159	5.385	0	14.85
1160	5.385	0	14.85
1161	5.385	0	14.85
1162	5.385	0	14.85
1163	5.37	0	14.85
1164	5.37	0	14.85
1165	5.37	0	14.85
1166	5.355	0	14.85
1167	5.355	0	14.85
1168	5.355	0	14.85
1169	5.355	0	14.85
1170	5.355	0	14.85
1171	5.34	0	14.85
1172	5.34	0	14.85
1173	5.34	0	14.85
1174	5.34	0	14.85
1175	5.34	0	14.85
1176	5.34	0	14.85
1177	5.355	0	14.85
1178	5.355	0	14.85
1179	5.355	0	14.85
1180	5.355	0	14.85
1181	5.355	0	14.85
1182	5.355	0	14.85
1183	5.37	0	14.85
1184	5.37	0	14.85
1185	5.37	0	14.85
1186	5.37	0	14.85
1187	5.385	0	14.85
1188	5.385	0	14.85
1189	5.385	0	14.85
1190	5.385	0	14.85
1191	5.4	0	14.85
1192	5.4	0	14.85
1193	5.4	0	14.85
1194	5.4	0	14.85
1195	5.385	0	14.85
1196	5.385	0	14.85
1197	5.385	0	14.85
1198	5.385	0	14.85
1199	5.385	0	14.85
1200	5.385	0	14.85
1201	5.385	0	14.85
1202	5.385	0	14.85
1203	5.385	0	14.85
1204	5.385	0	14.85
1205	5.385	0	14.85
1206	5.385	0	14.85
1207	5.4	0	14.85
1208	5.4	0	14.85
1209	5.4	0	14.85
1210	5.4	0	14.85
1211	5.4	0	14.85
1212	5.4	0	14.85
1213	5.4	0	14.85
1214	5.4	0	14.85
1215	5.4	0	14.85
1216	5.4	0	14.85
1217	5.4	0	14.85
1218	5.385	0	14.85
1219	5.385	0	14.85
1220	5.385	0	14.85
1221	5.37	0	14.85
1222	5.37	0	14.85
1223	5.37	0	14.85
1224	5.37	0	14.85
1225	5.37	0	14.85
1226	5.37	0	14.85
1227	5.37	0	14.85
1228	5.37	0	14.85
1229	5.355	0	14.85
1230	5.355	0	14.85
1231	5.355	0	14.85
1232	5.355	0	14.85
1233	5.355	0	14.85
1234	5.355	0	14.85
1235	5.355	0	14.85
1236	5.34	0	14.85
1237	5.34	0	14.85
1238	5.34	0	14.85
1239	5.325	0	14.85
1240	5.325	0	14.85
1241	5.325	0	14.85
1242	5.325	0	14.85
1243	5.325	0	14.85
1244	5.325	0	14.85
1245	5.325	0	14.85
1246	5.325	0	14.85
1247	5.325	0	14.85
1248	5.325	0	14.85
1249	5.325	0	14.85
1250	5.325	0	14.85
1251	5.325	0	14.85
1252	5.31	0	14.85
1253	5.31	0	14.85
1254	5.31	0	14.85
1255	5.31	0	14.85
1256	5.295	0	14.85
1257	5.295	0	14.85
1258	5.295	0.0015	14.85
1259	5.325	0.009	16.05
1260	5.34	0.021	17.55
1261	5.37	0.03	19.05
1262	5.415	0.0495	21.45
1263	5.49	0.072	24.6
1264	5.55	0.0945	27.6
1265	5.58	0.1065	29.4
1266	5.64	0.126	32.1
1267	5.685	0.147	34.95
1268	5.76	0.168	38.25
1269	5.79	0.1815	40.05
1270	5.835	0.198	42.3
1271	5.895	0.2145	45
1272	5.94	0.2325	47.4
1273	5.985	0.2535	50.4
1274	6.06	0.2745	53.85
1275	6.12	0.3	57.3
1276	6.18	0.321	60.6
1277	6.27	0.345	64.8
1278	6.33	0.3705	68.4
1279	6.405	0.39	71.55
1280	6.45	0.408	74.4
1281	6.51	0.429	77.25
1282	6.57	0.4545	80.7
1283	6.63	0.477	83.85
1284	6.705	0.504	87.45
1285	6.765	0.525	90.15
1286	6.795	0.5385	92.1
1287	6.84	0.5565	94.2
1288	6.9	0.576	96.6
1289	6.945	0.5955	98.85
1290	6.975	0.6135	100.8
1291	7.02	0.6285	102.6
1292	7.065	0.6525	105.15
1293	7.095	0.6705	106.95
1294	7.14	0.69	109.05
1295	7.17	0.7125	111.15
1296	7.2	0.7365	113.55
1297	7.215	0.7635	115.95
1298	7.17	0.783	117.75
1299	7.17	0.81	120.15
1300	7.2	0.84	123
1301	7.245	0.861	124.8
1302	7.275	0.8805	126.45
1303	7.29	0.8955	127.8
1304	7.32	0.912	129.3
1305	7.35	0.9285	130.5
1306	7.395	0.9495	132.15
1307	7.425	0.9645	133.65
1308	7.5	1.002	136.35
1309	7.59	1.05	140.1
1310	7.665	1.089	143.1
1311	7.71	1.122	145.5
1312	7.77	1.1565	148.05
1313	7.83	1.1895	150.3
1314	7.89	1.2255	153
1315	7.965	1.275	155.85
1316	8.01	1.305	157.95
1317	8.055	1.3425	160.2
1318	8.1	1.3785	162.6
1319	8.145	1.413	164.55
1320	8.175	1.4325	165.9
1321	8.205	1.4505	166.95
1322	8.235	1.473	168.3
1323	8.28	1.5015	169.95
1324	8.31	1.5255	171.3
1325	8.34	1.551	172.8
1326	8.385	1.5795	174.3
1327	8.43	1.6185	176.4
1328	8.46	1.6515	178.2
1329	8.505	1.683	179.85
1330	8.52	1.698	180.75
1331	8.55	1.7235	182.1
1332	8.58	1.743	183.15
1333	8.61	1.7625	184.05
1334	8.655	1.794	185.85
1335	8.67	1.8135	186.75
1336	8.685	1.827	187.35
1337	8.7	1.8345	187.65
1338	8.7	1.8405	187.95
1339	8.7	1.842	188.1
1340	8.7	1.842	188.1
1341	8.7	1.842	188.1
1342	8.685	1.842	188.1
1343	8.7	1.839	188.1
1344	8.7	1.842	188.1
1345	8.7	1.839	187.95
1346	8.7	1.8405	188.1
1347	8.7	1.8405	188.1
1348	8.7	1.839	187.95
1349	8.7	1.8375	187.95
1350	8.7	1.836	187.95
1351	8.7	1.836	187.95
1352	8.7	1.836	187.95
1353	8.7	1.8345	187.8
1354	8.7	1.836	187.95
1355	8.7	1.8345	187.8
1356	8.685	1.836	187.8
1357	8.685	1.8345	187.8
1358	8.685	1.833	187.65
1359	8.685	1.833	187.8
1360	8.67	1.8315	187.65
1361	8.67	1.8315	187.65
1362	8.67	1.8315	187.65
1363	8.655	1.83	187.65
1364	8.655	1.8315	187.65
1365	8.655	1.8285	187.65
1366	8.655	1.8285	187.65
1367	8.655	1.83	187.65
1368	8.64	1.8285	187.65
1369	8.64	1.83	187.65
1370	8.64	1.827	187.5
1371	8.625	1.8255	187.5
1372	8.625	1.827	187.5
1373	8.625	1.827	187.5
1374	8.625	1.8255	187.5
1375	8.625	1.8255	187.5
1376	8.625	1.8255	187.5
1377	8.625	1.8225	187.5
1378	8.625	1.8225	187.35
1379	8.625	1.821	187.35
1380	8.625	1.821	187.35
1381	8.625	1.821	187.35
1382	8.625	1.8195	187.35
1383	8.625	1.8195	187.2
1384	8.625	1.8195	187.2
1385	8.625	1.818	187.2
1386	8.625	1.815	187.05
1387	8.61	1.8165	187.05
1388	8.61	1.8135	187.05
1389	8.61	1.815	187.05
1390	8.58	1.776	185.25
1391	8.46	1.65	179.1
1392	8.295	1.4895	170.55
1393	8.085	1.323	160.95
1394	7.86	1.1475	149.55
1395	7.62	0.984	137.7
1396	7.35	0.8325	125.1
1397	7.02	0.645	107.1
1398	6.48	0.4305	80.85
1399	5.775	0.1845	43.5
1400	5.055	0.0015	15
1401	5.085	0	14.85
1402	5.1	0	14.7
1403	5.115	0	14.7
1404	5.13	0	14.7
1405	5.145	0	14.7
1406	5.16	0	14.7
1407	5.16	0	14.7
1408	5.175	0	14.7
1409	5.19	0	14.7
1410	5.205	0	14.7
1411	5.205	0	14.7
1412	5.22	0	14.7
1413	5.22	0	14.7
1414	5.22	0	14.7
1415	5.22	0	14.7
1416	5.22	0	14.7
1417	5.22	0	14.7
1418	5.235	0	14.7
1419	5.235	0	14.7
1420	5.22	0	14.7
1421	5.22	0	14.7
1422	5.22	0	14.7
1423	5.22	0	14.7
1424	5.22	0	14.7
1425	5.22	0	14.7
1426	5.235	0	14.7
1427	5.235	0	14.7
1428	5.235	-0.0015	14.7
1429	5.235	0	14.7
1430	5.235	0	14.7
1431	5.235	0	14.7
1432	5.235	0	14.7
1433	5.235	0	14.7
1434	5.235	0	14.7
1435	5.235	0	14.7
1436	5.235	0	14.7
1437	5.235	0	14.7
1438	5.235	0	14.7
1439	5.25	0	14.7
1440	5.25	0	14.7
1441	5.25	0	14.7
1442	5.265	0	14.7
1443	5.265	0	14.7
1444	5.28	0	14.7
1445	5.28	0	14.7
1446	5.28	0	14.7
1447	5.28	0	14.7
1448	5.28	0	14.7
1449	5.28	0	14.7
1450	5.28	0	14.7
1451	5.28	0	14.7
1452	5.28	0	14.7
1453	5.28	0	14.7
1454	5.28	0	14.7
1455	5.295	0	14.7
1456	5.295	0	14.7
1457	5.295	0	14.7
1458	5.295	0	14.7
1459	5.295	0	14.7
1460	5.31	0	14.7
1461	5.31	0	14.7
1462	5.31	0	14.7
1463	5.325	0	14.7
1464	5.325	0	14.7
1465	5.325	0	14.7
1466	5.34	0	14.7
1467	5.34	0	14.7
1468	5.34	0	14.7
1469	5.355	0	14.7
1470	5.355	0	14.7
1471	5.355	0	14.7
1472	5.355	0	14.7
1473	5.355	0	14.7
1474	5.355	0	14.7
1475	5.34	0	14.7
1476	5.325	0	14.7
1477	5.295	0	14.7
1478	5.265	0	14.7
1479	5.25	0	14.7
1480	5.265	0	14.7
1481	5.28	0	14.7
1482	5.28	0	14.7
1483	5.28	0	14.7
1484	5.28	0	14.7
1485	5.295	0	14.7
1486	5.295	0	14.7
1487	5.295	0	14.7
1488	5.295	0	14.7
1489	5.295	0	14.7
1490	5.31	0	14.7
1491	5.31	0	14.7
1492	5.295	0	14.7
1493	5.295	0	14.7
1494	5.295	0	14.7
1495	5.295	0	14.7
1496	5.28	0	14.7
1497	5.28	0	14.7
1498	5.28	0	14.7
1499	5.265	0	14.7
1500	5.265	0	14.7
1501	5.265	0	14.7
1502	5.265	0	14.7
1503	5.265	0	14.7
1504	5.265	0	14.7
1505	5.265	0	14.7
1506	5.265	0	14.7
1507	5.25	0	14.7
1508	5.25	0	14.7
1509	5.25	0	14.7
1510	5.25	0	14.7
1511	5.235	0	14.7
1512	5.235	0	14.7
1513	5.235	0	14.7
1514	5.22	0	14.7
1515	5.22	0	14.7
1516	5.205	0	14.7
1517	5.205	0	14.7
1518	5.205	0	14.7
1519	5.205	0	14.7
1520	5.19	0	14.7
1521	5.19	0	14.7
1522	5.19	0	14.7
1523	5.19	0	14.7
1524	5.19	0	14.7
1525	5.19	0	14.7
1526	5.19	0	14.7
1527	5.19	0	14.7
1528	5.19	0	14.7
1529	5.175	0	14.7
1530	5.175	0	14.7
1531	5.175	0	14.7
1532	5.19	0	14.7
1533	5.175	0	14.7
1534	5.175	0	14.7
1535	5.175	0	14.7
1536	5.175	0	14.7
1537	5.16	0	14.7
1538	5.16	0	14.7
1539	5.16	0	14.7
1540	5.16	0	14.7
1541	5.16	0	14.7
1542	5.16	0	14.7
1543	5.16	0	14.7
1544	5.16	0	14.7
1545	5.16	0	14.7
1546	5.16	0	14.7
1547	5.16	0	14.7
1548	5.16	0	14.7
1549	5.16	0	14.7
1550	5.16	0	14.7
1551	5.145	0	14.7
1552	5.145	0	14.7
1553	5.145	0	14.7
1554	5.145	0	14.7
1555	5.145	0	14.7
1556	5.145	0	14.7
1557	5.145	0	14.7
1558	5.13	0	14.7
1559	5.115	0	14.7
1560	5.085	0	14.7
1561	5.1	0	14.7
1562	5.1	0	14.7
1563	5.1	0	14.7
1564	5.115	0	14.7
1565	5.115	0	14.7
1566	5.115	0	14.7
1567	5.115	0	14.7
1568	5.13	0	14.7
1569	5.13	0	14.7
1570	5.13	0	14.7
1571	5.13	0	14.7
1572	5.13	0	14.7
1573	5.13	0	14.7
1574	5.13	0	14.7
1575	5.13	0	14.7
1576	5.13	0	14.7
1577	5.13	0	14.7
1578	5.13	0	14.7
1579	5.115	0	14.7
1580	5.115	0	14.7
1581	5.1	0	14.7
1582	5.1	0	14.7
1583	5.1	-0.0015	14.7
1584	5.085	0	14.7
1585	5.085	0	14.7
1586	5.085	0	14.7
1587	5.07	0	14.7
1588	5.07	0	14.7
1589	5.07	0	14.7
1590	5.07	0	14.7
1591	5.055	0	14.7
1592	5.07	0	14.7
1593	5.055	0	14.7
1594	5.055	0	14.7
1595	5.055	0	14.7
1596	5.055	0	14.7
1597	5.055	0	14.7
1598	5.055	0	14.7
1599	5.055	0	14.7
1600	5.055	0	14.7
1601	5.055	0	14.7
1602	5.055	0	14.7
1603	5.055	0	14.7
1604	5.07	0	14.7
1605	5.07	0	14.7
1606	5.07	0	14.7
1607	5.055	0	14.7
1608	5.055	0	14.7
1609	5.055	0	14.7
1610	5.055	0	14.7
1611	5.055	0	14.7
1612	5.055	0	14.7
1613	5.055	0	14.7
1614	5.04	0	14.7
1615	5.04	0	14.7
1616	5.04	0	14.7
1617	5.04	0	14.7
1618	5.055	0	14.7
1619	5.055	0	14.7
1620	5.055	0	14.7
1621	5.07	0	14.7
1622	5.07	0	14.7
1623	5.085	-0.0015	14.7
1624	5.085	0	14.7
1625	5.085	0	14.7
1626	5.085	0	14.7
1627	5.085	0	14.7
1628	5.1	0	14.7
1629	5.1	0	14.7
1630	5.1	0	14.7
1631	5.1	0	14.7
1632	5.1	0	14.7
1633	5.1	0	14.7
1634	5.1	0	14.7
1635	5.115	0	14.7
1636	5.115	0	14.7
1637	5.13	0	14.7
1638	5.13	0	14.7
1639	5.145	0	14.7
1640	5.145	0	14.7
1641	5.145	0	14.7
1642	5.145	0	14.7
1643	5.145	0	14.7
1644	5.145	0	14.7
1645	5.145	0	14.7
1646	5.145	0	14.7
1647	5.13	0	14.7
1648	5.13	0	14.7
1649	5.13	0	14.7
1650	5.13	0	14.7
1651	5.115	0	14.7
1652	5.115	0	14.7
1653	5.13	0	14.7
1654	5.13	0	14.7
1655	5.115	0	14.7
1656	5.13	0	14.7
1657	5.13	0	14.7
1658	5.13	0	14.7
1659	5.13	0	14.7
1660	5.13	0	14.7
1661	5.13	0	14.7
1662	5.13	0	14.7
1663	5.13	0	14.7
1664	5.13	0	14.7
1665	5.145	0	14.7
1666	5.145	0	14.7
1667	5.145	0	14.7
1668	5.145	0	14.7
1669	5.145	0	14.7
1670	5.145	0	14.7
1671	5.145	0	14.7
1672	5.145	0	14.7
1673	5.145	0	14.7
1674	5.145	0	14.7
1675	5.145	0	14.7
1676	5.145	0	14.7
1677	5.16	0	14.7
1678	5.16	0	14.7
1679	5.16	-0.0015	14.7
1680	5.16	0	14.7
1681	5.16	0	14.7
1682	5.16	0	14.7
1683	5.16	0	14.7
1684	5.145	0	14.7
1685	5.145	0	14.7
1686	5.145	0	14.7
1687	5.16	0	14.7
1688	5.16	0	14.7
1689	5.16	0	14.7
1690	5.175	0	14.7
1691	5.175	0	14.7
1692	5.175	0	14.7
1693	5.19	0	14.7
1694	5.19	0	14.7
1695	5.19	0	14.7
1696	5.19	0	14.7
1697	5.19	0	14.7
1698	5.19	0	14.7
1699	5.175	0	14.7
1700	5.19	0	14.7
1701	5.19	0	14.7
1702	5.205	0	14.7
1703	5.205	0	14.7
1704	5.205	0	14.7
1705	5.205	0	14.7
1706	5.205	0	14.7
1707	5.205	0	14.7
1708	5.205	0	14.7
1709	5.205	-0.0015	14.7
1710	5.205	0	14.7
1711	5.205	0	14.7
1712	5.205	0	14.7
1713	5.205	0	14.7
1714	5.205	0	14.7
1715	5.205	0	14.7
1716	5.22	0	14.7
1717	5.22	0	14.7
1718	5.22	0	14.7
1719	5.235	0	14.7
1720	5.235	0	14.7
1721	5.25	0	14.7
1722	5.25	0	14.7
1723	5.25	0	14.7
1724	5.265	0	14.7
1725	5.265	0	14.7
1726	5.265	0	14.7
1727	5.28	0	14.7
1728	5.28	0	14.7
1729	5.28	0	14.7
1730	5.28	0	14.7
1731	5.28	0	14.7
1732	5.265	0	14.7
1733	5.28	0	14.7
1734	5.28	0	14.7
1735	5.28	0	14.7
1736	5.295	0	14.7
1737	5.295	0	14.7
1738	5.295	0	14.7
1739	5.295	0	14.7
1740	5.295	0	14.7
1741	5.295	0	14.7
1742	5.295	0	14.7
1743	5.295	0	14.7
1744	5.295	0	14.7
1745	5.295	0	14.7
1746	5.295	-0.003	14.55
1747	5.295	-0.0045	14.25
1748	5.28	-0.006	13.65
1749	5.265	-0.0135	12.75
1750	5.265	-0.0195	11.7
1751	5.25	-0.0225	11.4
1752	5.25	-0.027	10.65
1753	5.25	-0.0285	10.2
1754	5.22	-0.0345	9.75
1755	5.205	-0.039	8.85
1756	5.19	-0.045	7.95
1757	5.175	-0.051	7.05
1758	5.16	-0.057	6.15
1759	5.13	-0.063	5.25
1760	5.115	-0.0705	4.2
1761	5.1	-0.075	3.45
1762	5.085	-0.081	2.4
1763	5.07	-0.0885	1.2
1764	5.04	-0.096	0.3
1765	5.025	-0.1035	-0.6
1766	5.01	-0.111	-1.8
1767	4.995	-0.1185	-3
1768	4.98	-0.1245	-3.9
1769	4.965	-0.1275	-4.5
1770	4.95	-0.135	-5.55
1771	4.92	-0.144	-6.9
1772	4.905	-0.15	-7.95
1773	4.89	-0.1575	-9
1774	4.875	-0.162	-9.6
1775	4.845	-0.1695	-10.65
1776	4.8	-0.177	-12
1777	4.77	-0.186	-13.35
1778	4.74	-0.192	-14.55
1779	4.71	-0.201	-15.9
1780	4.68	-0.2115	-17.4
1781	4.665	-0.2175	-18.3
1782	4.65	-0.2235	-18.9
1783	4.635	-0.234	-20.25
1784	4.605	-0.2385	-21.3
1785	4.59	-0.2445	-22.2
1786	4.56	-0.2535	-23.85
1787	4.53	-0.261	-24.9
1788	4.515	-0.27	-26.25
1789	4.5	-0.2775	-27.3
1790	4.485	-0.285	-28.5
1791	4.455	-0.294	-29.7
1792	4.41	-0.309	-31.95
1793	4.395	-0.318	-33.6
1794	4.35	-0.3285	-35.25
1795	4.305	-0.342	-37.5
1796	4.275	-0.3525	-39.15
1797	4.245	-0.366	-41.25
1798	4.2	-0.3795	-43.5
1799	4.155	-0.393	-45.6
1800	4.125	-0.408	-47.7
1801	4.095	-0.4215	-49.8
1802	4.065	-0.432	-51.3
1803	4.035	-0.4425	-52.95
1804	4.005	-0.4575	-55.2
1805	3.96	-0.471	-57
1806	3.93	-0.489	-59.25
1807	3.885	-0.5025	-61.35
1808	3.87	-0.513	-62.55
1809	3.825	-0.531	-65.25
1810	3.795	-0.5445	-66.75
1811	3.765	-0.558	-68.25
1812	3.735	-0.5685	-69.9
1813	3.735	-0.576	-70.8
1814	3.69	-0.5835	-71.85
1815	3.66	-0.6	-73.65
1816	3.63	-0.615	-75.45
1817	3.615	-0.627	-76.35
1818	3.6	-0.6315	-77.1
1819	3.57	-0.642	-78.15
1820	3.555	-0.651	-79.05
1821	3.54	-0.6585	-79.95
1822	3.525	-0.669	-81
1823	3.51	-0.6765	-81.9
1824	3.51	-0.684	-82.8
1825	3.495	-0.6945	-83.7
1826	3.48	-0.7035	-84.75
1827	3.465	-0.7125	-85.5
1828	3.45	-0.7185	-86.25
1829	3.42	-0.7245	-86.85
1830	3.405	-0.7365	-87.9
1831	3.375	-0.744	-88.8
1832	3.36	-0.753	-89.7
1833	3.345	-0.7605	-90.45
1834	3.33	-0.7695	-91.05
1835	3.3	-0.7815	-92.4
1836	3.285	-0.789	-93.15
1837	3.255	-0.801	-94.2
1838	3.24	-0.8115	-95.1
1839	3.225	-0.819	-95.55
1840	3.21	-0.8265	-96.3
1841	3.18	-0.84	-97.5
1842	3.15	-0.852	-98.7
1843	3.135	-0.8625	-99.6
1844	3.12	-0.873	-100.5
1845	3.09	-0.8835	-101.55
1846	3.075	-0.9	-102.75
1847	3.045	-0.915	-104.1
1848	3.015	-0.93	-105.45
1849	3	-0.9405	-106.2
1850	3	-0.9495	-107.1
1851	2.97	-0.96	-107.85
1852	2.97	-0.969	-108.6
1853	2.94	-0.981	-109.65
1854	2.925	-0.993	-110.7
1855	2.895	-1.0065	-111.6
1856	2.88	-1.0185	-112.8
1857	2.85	-1.0335	-114
1858	2.835	-1.044	-114.75
1859	2.805	-1.0605	-115.65
1860	2.79	-1.074	-116.7
1861	2.805	-1.0785	-117.15
1862	2.805	-1.0815	-117.45
1863	2.805	-1.0875	-117.9
1864	2.775	-1.0965	-118.5
1865	2.775	-1.1055	-119.1
1866	2.76	-1.1085	-119.4
1867	2.745	-1.116	-120
1868	2.745	-1.1235	-120.6
1869	2.73	-1.128	-120.9
1870	2.715	-1.1385	-121.65
1871	2.7	-1.146	-122.25
1872	2.7	-1.155	-123
1873	2.7	-1.164	-123.6
1874	2.685	-1.1745	-124.35
1875	2.67	-1.185	-124.95
1876	2.67	-1.1955	-125.7
1877	2.64	-1.2075	-126.6
1878	2.625	-1.2195	-127.5
1879	2.595	-1.2315	-128.4
1880	2.58	-1.2435	-129.15
1881	2.58	-1.2525	-129.75
1882	2.55	-1.2675	-130.65
1883	2.52	-1.281	-131.7
1884	2.505	-1.2915	-132.45
1885	2.49	-1.305	-133.35
1886	2.475	-1.314	-133.95
1887	2.46	-1.3215	-134.25
1888	2.445	-1.3365	-135.15
1889	2.43	-1.347	-135.9
1890	2.415	-1.3665	-137.25
1891	2.4	-1.3785	-138
1892	2.385	-1.395	-138.9
1893	2.37	-1.407	-139.8
1894	2.355	-1.425	-141
1895	2.34	-1.4415	-141.75
1896	2.34	-1.4445	-142.05
1897	2.325	-1.4535	-142.65
1898	2.31	-1.4685	-143.55
1899	2.31	-1.479	-144
1900	2.325	-1.4805	-144.15
1901	2.325	-1.479	-144.15
1902	2.34	-1.482	-144.15
1903	2.325	-1.491	-144.75
1904	2.31	-1.5	-145.5
1905	2.31	-1.512	-145.95
1906	2.295	-1.5165	-146.25
1907	2.295	-1.527	-147
1908	2.28	-1.5315	-147.3
1909	2.28	-1.5435	-147.9
1910	2.265	-1.554	-148.5
1911	2.265	-1.56	-148.8
1912	2.265	-1.575	-149.55
1913	2.25	-1.584	-150.15
1914	2.25	-1.593	-150.75
1915	2.235	-1.6035	-151.35
1916	2.235	-1.6125	-151.8
1917	2.235	-1.617	-152.25
1918	2.22	-1.6215	-152.55
1919	2.22	-1.629	-152.85
1920	2.22	-1.6395	-153.15
1921	2.205	-1.644	-153.3
1922	2.19	-1.65	-153.45
1923	2.175	-1.656	-153.9
1924	2.16	-1.662	-154.2
1925	2.16	-1.68	-155.25
1926	2.16	-1.6785	-155.25
1927	2.16	-1.683	-155.4
1928	2.145	-1.6875	-155.55
1929	2.145	-1.692	-155.85
1930	2.13	-1.6935	-156
1931	2.115	-1.701	-156.3
1932	2.115	-1.707	-156.75
1933	2.1	-1.71	-157.05
1934	2.085	-1.722	-157.5
1935	2.07	-1.731	-157.95
1936	2.055	-1.743	-158.55
1937	2.04	-1.7535	-159.3
1938	2.025	-1.767	-160.05
1939	2.01	-1.779	-160.5
1940	1.995	-1.7895	-161.1
1941	1.965	-1.8	-161.7
1942	1.965	-1.812	-162.3
1943	1.95	-1.815	-162.3
1944	1.95	-1.812	-162.3
1945	1.935	-1.812	-162.3
1946	1.935	-1.812	-162.3
1947	1.935	-1.809	-162.3
1948	1.935	-1.8105	-162.3
1949	1.935	-1.8105	-162.3
1950	1.92	-1.8105	-162.3
1951	1.935	-1.8105	-162.3
1952	1.935	-1.809	-162.15
1953	1.935	-1.809	-162.15
1954	1.935	-1.8075	-162.15
1955	1.935	-1.8075	-162.15
1956	1.935	-1.8075	-162.15
1957	1.935	-1.8075	-162.15
1958	1.935	-1.806	-162
1959	1.95	-1.8075	-162.15
1960	1.95	-1.806	-162
1961	1.95	-1.806	-162
1962	1.95	-1.806	-162
1963	1.95	-1.803	-162
1964	1.965	-1.8045	-162
1965	1.98	-1.8015	-161.85
1966	1.98	-1.8045	-161.85
1967	1.995	-1.8045	-161.85
1968	2.01	-1.8015	-161.85
1969	2.025	-1.803	-161.85
1970	2.04	-1.8015	-161.85
1971	2.04	-1.8015	-161.85
1972	2.04	-1.8015	-161.85
1973	2.055	-1.8	-161.7
1974	2.055	-1.8	-161.85
1975	2.07	-1.7985	-161.7
1976	2.07	-1.7985	-161.7
1977	2.085	-1.797	-161.7
1978	2.085	-1.7955	-161.55
1979	2.085	-1.794	-161.55
1980	2.1	-1.794	-161.55
1981	2.1	-1.7925	-161.55
1982	2.1	-1.7925	-161.55
1983	2.1	-1.7925	-161.4
1984	2.1	-1.794	-161.4
1985	2.1	-1.791	-161.4
1986	2.1	-1.7925	-161.4
1987	2.085	-1.7925	-161.4
1988	2.1	-1.791	-161.4
1989	2.085	-1.791	-161.4
1990	2.1	-1.791	-161.4
1991	2.1	-1.791	-161.4
1992	2.1	-1.791	-161.4
1993	2.1	-1.791	-161.4
1994	2.1	-1.791	-161.4
1995	2.1	-1.791	-161.25
1996	2.085	-1.788	-161.25
1997	2.085	-1.7895	-161.25
1998	2.085	-1.788	-161.25
1999	2.085	-1.785	-161.25
2000	2.085	-1.788	-161.1
2001	2.085	-1.788	-161.25
2002	2.085	-1.785	-161.1
2003	2.07	-1.785	-161.1
2004	2.085	-1.782	-160.95
2005	2.085	-1.7415	-159
2006	2.145	-1.6545	-154.8
2007	2.25	-1.5705	-150.75
2008	2.34	-1.4775	-145.65
2009	2.445	-1.362	-139.05
2010	2.61	-1.251	-132.15
2011	2.745	-1.1505	-125.4
2012	2.91	-1.0335	-117
2013	3.105	-0.921	-108.15
2014	3.285	-0.816	-99.15
2015	3.48	-0.72	-90.45
2016	3.66	-0.63	-81.45
2017	3.855	-0.531	-69.9
2018	4.095	-0.4485	-59.1
2019	4.305	-0.3825	-49.65
2020	4.485	-0.336	-42.45
2021	4.59	-0.288	-35.1
2022	4.8	-0.2055	-21.9
2023	5.07	-0.132	-10.5
2024	5.28	-0.0435	2.7
2025	5.565	0	9.6
2026	5.61	0	9.6
2027	5.595	0	9.6
2028	5.58	0	9.75
2029	5.58	-0.0015	9.6
2030	5.565	0	9.75
2031	5.565	0	9.75
2032	5.565	0	9.6
2033	5.565	0	9.75
2034	5.55	0	9.75
2035	5.55	0	9.75
2036	5.55	0	9.75
2037	5.535	0	9.75
2038	5.535	0	9.75
2039	5.52	0	9.6
2040	5.505	0	9.75
2041	5.505	0	9.75
2042	5.505	0	9.6
2043	5.505	0	9.6
2044	5.505	0	9.6
2045	5.505	0	9.6
2046	5.505	0	9.75
2047	5.49	0	9.75
2048	5.49	0	9.75
2049	5.475	0	9.6
2050	5.46	0	9.6
2051	5.445	0	9.6
2052	5.445	0	9.75
2053	5.43	0	9.75
2054	5.43	0	9.75
2055	5.415	0	9.75
2056	5.4	0	9.75
2057	5.385	0	9.75
2058	5.37	0	9.75
2059	5.37	0	9.75
2060	5.355	0	9.75
2061	5.34	0	9.75
2062	5.325	0	9.75
2063	5.325	0	9.75
2064	5.31	0	9.75
2065	5.295	0	9.75
2066	5.295	0	9.75
2067	5.28	0	9.75
2068	5.28	0	9.75
2069	5.28	0	9.75
2070	5.28	0	9.75
2071	5.28	0	9.75
2072	5.28	0	9.75
2073	5.295	0	9.75
2074	5.295	0	9.75
2075	5.295	0	9.75
2076	5.295	0	9.75
2077	5.295	0	9.75
2078	5.295	0	9.75
2079	5.31	0	9.75
2080	5.31	0	9.75
2081	5.31	0	9.75
2082	5.295	0	9.75
2083	5.295	0	9.75
2084	5.295	0	9.75
2085	5.295	0	9.75
2086	5.295	0	9.75
2087	5.28	0	9.75
2088	5.28	0	9.75
2089	5.265	0	9.75
2090	5.265	0	9.75
2091	5.265	0	9.75
2092	5.265	0	9.75
2093	5.265	-0.0015	9.75
2094	5.25	0	9.75
2095	5.25	0	9.6
2096	5.25	0	9.6
2097	5.235	0	9.75
2098	5.235	0	9.6
2099	5.235	0	9.6
2100	5.22	0	9.75
2101	5.22	0	9.75
2102	5.22	0	9.75
2103	5.205	0	9.6
2104	5.205	0	9.75
2105	5.205	0	9.75
2106	5.205	0	9.75
2107	5.19	0	9.75
2108	5.19	0	9.75
2109	5.19	0	9.75
2110	5.19	0	9.75
2111	5.175	0	9.75
2112	5.175	0	9.75
2113	5.175	0	9.75
2114	5.175	0	9.75
2115	5.175	0	9.75
2116	5.175	0	9.75
2117	5.175	0	9.75
2118	5.175	0	9.75
2119	5.175	0	9.75
2120	5.175	0	9.75
2121	5.16	0	9.75
2122	5.16	0	9.75
2123	5.16	0	9.75
2124	5.145	0	9.75
2125	5.145	0	9.75
2126	5.13	0	9.75
2127	5.13	0	9.75
2128	5.13	0	9.75
2129	5.115	0	9.75
2130	5.115	0	9.75
2131	5.115	0	9.75
2132	5.1	0	9.75
2133	5.1	0	9.75
2134	5.1	0	9.75
2135	5.1	0	9.75
2136	5.1	0	9.75
2137	5.1	0	9.75
2138	5.1	0	9.75
2139	5.1	0	9.75
2140	5.1	0	9.75
2141	5.1	0	9.75
2142	5.1	0	9.75
2143	5.085	0	9.75
2144	5.085	0	9.75
2145	5.085	0	9.75
2146	5.085	0	9.75
2147	5.085	0	9.75
2148	5.085	0	9.75
2149	5.085	0	9.75
2150	5.085	0	9.75
2151	5.085	0	9.75
2152	5.085	0	9.75
2153	5.085	0	9.75
2154	5.1	0	9.75
2155	5.1	0	9.75
2156	5.1	0	9.75
2157	5.1	0	9.75
2158	5.115	0	9.75
2159	5.115	0	9.75
2160	5.115	0	9.75
2161	5.13	0	9.75
2162	5.13	0	9.75
2163	5.13	0	9.75
2164	5.13	0	9.75
2165	5.13	0	9.75
2166	5.13	0	9.75
2167	5.13	0	9.75
2168	5.145	0	9.75
2169	5.145	0	9.75
2170	5.145	0	9.75
2171	5.145	0	9.75
2172	5.145	0	9.75
2173	5.145	0	9.75
2174	5.145	0	9.75
2175	5.13	0	9.75
2176	5.13	0	9.75
2177	5.13	0	9.75
2178	5.13	0	9.75
2179	5.13	0	9.75
2180	5.13	0	9.75
2181	5.13	0	9.75
2182	5.13	0	9.75
2183	5.13	0	9.75
2184	5.13	0	9.75
2185	5.13	0	9.75
2186	5.13	0	9.75
2187	5.13	0	9.75
2188	5.13	0	9.75
2189	5.115	0	9.75
2190	5.115	0	9.75
2191	5.115	0	9.75
2192	5.115	0	9.75
2193	5.115	0	9.75
2194	5.115	0	9.75
2195	5.115	0	9.75
2196	4.98	-0.0345	4.95
2197	4.935	-0.0645	0.9
2198	4.905	-0.0675	0.45
2199	4.905	-0.0675	0.45
2200	4.89	-0.0675	0.45
2201	4.89	-0.0675	0.45
2202	4.875	-0.066	0.45
2203	4.86	-0.0675	0.45
2204	4.83	-0.069	0.3
2205	4.59	-0.138	-9.3
2206	4.53	-0.168	-13.65
2207	4.53	-0.1695	-13.8
2208	4.545	-0.1605	-12.6
2209	4.575	-0.141	-10.05
2210	4.59	-0.132	-9
2211	4.59	-0.1275	-8.4
2212	4.605	-0.123	-7.8
2213	4.605	-0.1185	-7.05
2214	4.605	-0.117	-7.05
2215	4.605	-0.117	-7.05
2216	4.65	-0.108	-5.7
2217	4.695	-0.093	-3.75
2218	4.71	-0.0885	-2.85
2219	4.71	-0.0885	-2.85
2220	4.725	-0.0885	-3
2221	4.725	-0.0885	-3
2222	4.74	-0.0885	-3
2223	4.785	-0.0795	-1.65
2224	4.815	-0.066	0.15
2225	4.815	-0.066	0.15
2226	4.815	-0.066	0
2227	4.815	-0.0675	0
2228	4.815	-0.0675	0
2229	4.815	-0.0675	0
2230	4.815	-0.0675	0
2231	4.815	-0.066	0
2232	4.83	-0.0675	0
2233	4.83	-0.0675	0
2234	4.83	-0.0675	0
2235	4.83	-0.066	0
2236	4.83	-0.0675	0
2237	4.83	-0.066	0
2238	4.83	-0.0675	0
2239	4.815	-0.0675	0
2240	4.815	-0.069	0
2241	4.815	-0.066	0
2242	4.815	-0.0675	0
2243	4.815	-0.0675	0
2244	4.815	-0.0675	0
2245	4.815	-0.0675	0
2246	4.8	-0.0675	0
2247	4.8	-0.069	0
2248	4.8	-0.0675	0
2249	4.8	-0.0675	0
2250	4.8	-0.0675	0
2251	4.8	-0.0675	0
2252	4.8	-0.066	0
2253	4.8	-0.0675	0
2254	4.8	-0.0675	0
2255	4.8	-0.0675	0
2256	4.8	-0.0675	0
2257	4.815	-0.0675	0
2258	4.8	-0.0675	0
2259	4.8	-0.0675	0
2260	4.8	-0.0675	0
2261	4.815	-0.0675	0
2262	4.83	-0.0675	0
2263	4.845	-0.0675	0
2264	4.86	-0.0675	0
2265	4.845	-0.0675	0
2266	4.845	-0.0675	0
2267	4.845	-0.0675	0
2268	4.83	-0.0675	0
2269	4.83	-0.0675	0
2270	4.83	-0.0675	0
2271	4.845	-0.0675	0
2272	4.845	-0.0675	0
2273	4.845	-0.0675	0
2274	4.845	-0.0675	0
2275	4.83	-0.0675	0
2276	4.83	-0.0675	0
2277	4.815	-0.0675	0
2278	4.815	-0.0675	0
2279	4.8	-0.0675	0
2280	4.8	-0.0675	0
2281	4.785	-0.0675	0
2282	4.785	-0.0675	0
2283	4.77	-0.0675	0
2284	4.77	-0.0675	0
2285	4.77	-0.0675	0
2286	4.77	-0.0675	0
2287	4.77	-0.0675	0
2288	4.755	-0.066	0
2289	4.755	-0.0675	0
2290	4.755	-0.0675	0
2291	4.755	-0.0675	0
2292	4.755	-0.0675	0
2293	4.755	-0.0675	0
2294	4.755	-0.0675	0
2295	4.74	-0.0675	0
2296	4.74	-0.066	0
2297	4.74	-0.0675	0
2298	4.74	-0.066	0
2299	4.74	-0.0675	0
2300	4.74	-0.0675	0
2301	4.74	-0.0675	0
2302	4.74	-0.0675	0
2303	4.74	-0.0675	0
2304	4.74	-0.0675	0
2305	4.74	-0.0675	0
2306	4.74	-0.0675	0
2307	4.74	-0.0675	0
2308	4.74	-0.0675	0
2309	4.74	-0.069	0
2310	4.755	-0.069	0
2311	4.755	-0.069	0
2312	4.755	-0.0675	0
2313	4.77	-0.069	0
2314	4.77	-0.069	0
2315	4.77	-0.069	0
2316	4.77	-0.069	0
2317	4.77	-0.069	0
2318	4.77	-0.0675	0
2319	4.77	-0.069	0
2320	4.77	-0.0675	0
2321	4.77	-0.0675	0
2322	4.785	-0.069	0
2323	4.785	-0.069	0
2324	4.8	-0.069	0
2325	4.8	-0.0675	0
2326	4.815	-0.069	0
2327	4.83	-0.0705	0
2328	4.83	-0.0675	0
2329	4.83	-0.069	0
2330	4.815	-0.069	0
2331	4.8	-0.069	0
2332	4.785	-0.069	0
2333	4.755	-0.069	0
2334	4.74	-0.069	0
2335	4.725	-0.069	0
2336	4.71	-0.069	0
2337	4.695	-0.069	0
2338	4.695	-0.069	0
2339	4.68	-0.069	0
2340	4.665	-0.069	0
2341	4.65	-0.069	0
2342	4.635	-0.069	0
2343	4.635	-0.069	0
2344	4.635	-0.069	0
2345	4.635	-0.069	0
2346	4.635	-0.069	0
2347	4.635	-0.069	0
2348	4.635	-0.069	0
2349	4.635	-0.069	0
2350	4.635	-0.069	0
2351	4.635	-0.069	0
2352	4.62	-0.069	0
2353	4.635	-0.069	0
2354	4.635	-0.069	0
2355	4.635	-0.069	0
2356	4.62	-0.0675	0
2357	4.635	-0.066	0
2358	4.635	-0.069	0
2359	4.635	-0.069	0
2360	4.635	-0.069	0
2361	4.635	-0.0675	0
2362	4.635	-0.069	0
2363	4.635	-0.0705	0
2364	4.65	-0.069	0
2365	4.65	-0.0675	0
2366	4.65	-0.069	0
2367	4.635	-0.069	0
2368	4.635	-0.069	0
2369	4.65	-0.069	0
2370	4.65	-0.069	0
2371	4.65	-0.069	0
2372	4.65	-0.069	0
2373	4.65	-0.069	0
2374	4.665	-0.069	0
2375	4.665	-0.069	0
2376	4.665	-0.069	0
2377	4.665	-0.069	0
2378	4.665	-0.069	0
2379	4.665	-0.0675	0
2380	4.665	-0.0675	0
2381	4.665	-0.069	0
2382	4.665	-0.069	0
2383	4.665	-0.069	0
2384	4.665	-0.069	0
2385	4.665	-0.069	0
2386	4.665	-0.069	0
2387	4.665	-0.069	0
2388	4.665	-0.069	0
2389	4.665	-0.069	0
2390	4.65	-0.069	0
2391	4.65	-0.069	0
2392	4.635	-0.0705	0
2393	4.635	-0.069	0
2394	4.62	-0.069	0
2395	4.62	-0.069	0
2396	4.62	-0.069	0
2397	4.605	-0.069	0
2398	4.605	-0.069	0
2399	4.59	-0.069	0
2400	4.59	-0.069	0
2401	4.59	-0.069	0
2402	4.575	-0.069	0
2403	4.575	-0.069	0
2404	4.56	-0.069	0
2405	4.56	-0.0675	0
2406	4.545	-0.069	0
2407	4.545	-0.069	0
2408	4.53	-0.069	0
2409	4.53	-0.069	0
2410	4.53	-0.069	0
2411	4.53	-0.069	0
2412	4.515	-0.069	0
2413	4.515	-0.069	0
2414	4.515	-0.069	0
2415	4.515	-0.069	0
2416	4.515	-0.069	0
2417	4.5	-0.069	0
2418	4.5	-0.069	0
2419	4.5	-0.069	0
2420	4.485	-0.0675	0
2421	4.485	-0.069	0
2422	4.485	-0.069	0
2423	4.485	-0.069	0
2424	4.47	-0.069	0
2425	4.47	-0.0675	0
2426	4.455	-0.069	0
2427	4.455	-0.069	0
2428	4.455	-0.069	0
2429	4.44	-0.0675	0
2430	4.44	-0.069	0
2431	4.44	-0.069	0
2432	4.44	-0.069	0
2433	4.44	-0.069	0
2434	4.44	-0.069	0
2435	4.425	-0.0705	0
2436	4.425	-0.069	0
2437	4.425	-0.069	0
2438	4.425	-0.069	0
2439	4.425	-0.069	0
2440	4.41	-0.069	0
2441	4.41	-0.069	0
2442	4.41	-0.069	0
2443	4.41	-0.0675	0
2444	4.395	-0.069	0
2445	4.395	-0.069	0
2446	4.395	-0.069	0
2447	4.395	-0.069	0
2448	4.395	-0.069	0
2449	4.38	-0.069	0
2450	4.365	-0.069	0
2451	4.365	-0.069	0
2452	4.35	-0.069	0
2453	4.35	-0.069	0
2454	4.35	-0.069	0
2455	4.35	-0.069	0
2456	4.335	-0.069	0
2457	4.335	-0.069	0
2458	4.335	-0.069	0
2459	4.335	-0.069	0
2460	4.32	-0.069	0
2461	4.32	-0.069	0
2462	4.32	-0.069	0
2463	4.32	-0.069	0
2464	4.32	-0.0705	0
2465	4.305	-0.069	0
2466	4.305	-0.069	0
2467	4.29	-0.069	0
2468	4.29	-0.069	0
2469	4.29	-0.069	0
2470	4.275	-0.069	0
2471	4.275	-0.069	0
2472	4.275	-0.069	0
2473	4.26	-0.069	0
2474	4.26	-0.069	0
2475	4.245	-0.069	0
2476	4.245	-0.069	0
2477	4.245	-0.069	0
2478	4.23	-0.0675	0
2479	4.23	-0.069	0
2480	4.215	-0.069	0
2481	4.215	-0.069	0
2482	4.215	-0.0675	0
2483	4.215	-0.069	0
2484	4.2	-0.069	0
2485	4.2	-0.0675	0
2486	4.2	-0.069	0
2487	4.185	-0.069	0
2488	4.185	-0.069	0
2489	4.185	-0.069	0
2490	4.185	-0.069	0
2491	4.185	-0.069	0
2492	4.185	-0.069	0
2493	4.185	-0.069	0
2494	4.2	-0.069	0
2495	4.2	-0.069	0
2496	4.2	-0.069	0
2497	4.2	-0.069	0
2498	4.2	-0.069	0
2499	4.2	-0.069	0
2500	4.185	-0.069	0
2501	4.185	-0.069	0
2502	4.185	-0.069	0
2503	4.185	-0.069	0
2504	4.185	-0.069	0
2505	4.185	-0.069	0
2506	4.185	-0.069	0
2507	4.185	-0.069	0
2508	4.17	-0.069	0
2509	4.17	-0.069	0
2510	4.17	-0.069	0
2511	4.155	-0.0675	0
2512	4.155	-0.069	0
2513	4.155	-0.069	0
2514	4.155	-0.0675	0
2515	4.155	-0.069	0
2516	4.155	-0.0705	0
2517	4.155	-0.069	0
2518	4.155	-0.069	0
2519	4.14	-0.0675	0
2520	4.14	-0.069	0
2521	4.155	-0.0675	0
2522	4.155	-0.069	0
2523	4.155	-0.0675	0
2524	4.155	-0.069	0
2525	4.155	-0.069	0
2526	4.155	-0.0675	0
2527	4.155	-0.069	0
2528	4.17	-0.069	0
2529	4.17	-0.069	0
2530	4.17	-0.069	0
2531	4.185	-0.069	0
2532	4.185	-0.0705	0
2533	4.185	-0.069	0
2534	4.185	-0.069	0
2535	4.185	-0.069	0
2536	4.2	-0.069	0
2537	4.2	-0.069	0
2538	4.2	-0.069	0
2539	4.185	-0.069	0
2540	4.2	-0.069	0
2541	4.185	-0.069	0
2542	4.185	-0.069	0
2543	4.185	-0.069	0
2544	4.185	-0.069	0
2545	4.185	-0.069	0
2546	4.185	-0.069	0
2547	4.185	-0.069	0
2548	4.2	-0.069	0
2549	4.2	-0.069	0
2550	4.2	-0.069	0
2551	4.185	-0.069	0
2552	4.185	-0.069	0
2553	4.185	-0.0675	0
2554	4.185	-0.069	0
2555	4.185	-0.069	0
2556	4.185	-0.069	0
2557	4.185	-0.069	0
2558	4.185	-0.069	0
2559	4.185	-0.069	0
2560	4.185	-0.0675	0
2561	4.185	-0.069	0
2562	4.185	-0.069	0
2563	4.2	-0.069	0
2564	4.2	-0.069	0
2565	4.2	-0.069	0
2566	4.215	-0.069	0
2567	4.215	-0.069	0
2568	4.23	-0.0675	0
2569	4.23	-0.069	-0.15
2570	4.23	-0.069	-0.15
2571	4.23	-0.0675	-0.15
2572	4.23	-0.069	-0.15
2573	4.23	-0.0705	0
2574	4.23	-0.069	0
2575	4.23	-0.069	0
2576	4.23	-0.069	0
2577	4.245	-0.069	0
2578	4.245	-0.069	0
2579	4.245	-0.069	0
2580	4.245	-0.069	0
2581	4.245	-0.069	0
2582	4.245	-0.069	0
2583	4.245	-0.069	0
2584	4.26	-0.069	0
2585	4.245	-0.069	0
2586	4.245	-0.069	0
2587	4.245	-0.069	-0.15
2588	4.245	-0.069	-0.15
2589	4.245	-0.069	-0.15
2590	4.23	-0.069	-0.15
2591	4.23	-0.069	-0.15
2592	4.23	-0.069	-0.15
2593	4.215	-0.069	-0.15
2594	4.215	-0.069	-0.15
2595	4.215	-0.069	-0.15
2596	4.215	-0.069	-0.15
2597	4.215	-0.069	0
2598	4.2	-0.069	-0.15
2599	4.2	-0.069	-0.15
2600	4.2	-0.069	-0.15
2601	4.2	-0.069	-0.15
2602	4.2	-0.069	-0.15
2603	4.185	-0.069	-0.15
2604	4.185	-0.0675	-0.15
2605	4.185	-0.069	-0.15
2606	4.185	-0.069	-0.15
2607	4.185	-0.069	0
2608	4.17	-0.069	0
2609	4.17	-0.069	0
2610	4.17	-0.069	0
2611	4.17	-0.069	-0.15
2612	4.17	-0.069	-0.15
2613	4.155	-0.069	-0.15
2614	4.155	-0.069	-0.15
2615	4.155	-0.0675	-0.15
2616	4.155	-0.069	-0.15
2617	4.155	-0.069	-0.15
2618	4.155	-0.069	-0.15
2619	4.155	-0.069	-0.15
2620	4.17	-0.069	0
2621	4.155	-0.069	-0.15
2622	4.155	-0.069	0
2623	4.155	-0.069	-0.15
2624	4.155	-0.0675	-0.15
2625	4.155	-0.069	-0.15
2626	4.155	-0.069	-0.15
2627	4.155	-0.069	-0.15
2628	4.155	-0.0675	-0.15
2629	4.155	-0.069	-0.15
2630	4.155	-0.069	-0.15
2631	4.155	-0.069	-0.15
2632	4.155	-0.069	-0.15
2633	4.17	-0.069	-0.15
2634	4.17	-0.069	-0.15
2635	4.17	-0.069	-0.15
2636	4.155	-0.069	-0.15
2637	4.155	-0.069	-0.15
2638	4.155	-0.069	-0.15
2639	4.155	-0.069	-0.15
2640	4.155	-0.0675	-0.15
2641	4.155	-0.069	-0.15
2642	4.155	-0.069	-0.15
2643	4.155	-0.069	-0.15
2644	4.155	-0.069	-0.15
2645	4.17	-0.069	-0.15
2646	4.155	-0.0675	-0.15
2647	4.155	-0.069	-0.15
2648	4.155	-0.0675	-0.15
2649	4.155	-0.069	-0.15
2650	4.155	-0.069	-0.15
2651	4.155	-0.069	0
2652	4.155	-0.069	0
2653	4.155	-0.069	0
2654	4.155	-0.069	-0.15
2655	4.155	-0.069	-0.15
2656	4.17	-0.069	-0.15
2657	4.17	-0.069	-0.15
2658	4.17	-0.069	-0.15
2659	4.17	-0.069	-0.15
2660	4.17	-0.0675	-0.15
2661	4.17	-0.069	-0.15
2662	4.17	-0.069	-0.15
2663	4.17	-0.069	-0.15
2664	4.17	-0.069	-0.15
2665	4.185	-0.069	-0.15
2666	4.185	-0.069	-0.15
2667	4.17	-0.0675	-0.15
2668	4.17	-0.069	-0.15
2669	4.185	-0.069	-0.15
2670	4.185	-0.069	-0.15
2671	4.185	-0.069	-0.15
2672	4.185	-0.069	-0.15
2673	4.185	-0.069	-0.15
2674	4.185	-0.069	-0.15
2675	4.2	-0.069	-0.15
2676	4.2	-0.069	0
2677	4.215	-0.069	0
2678	4.215	-0.069	-0.15
2679	4.23	-0.069	0
2680	4.23	-0.0705	0
2681	4.23	-0.0675	0
2682	4.23	-0.069	0
2683	4.245	-0.069	-0.15
2684	4.245	-0.069	-0.15
2685	4.26	-0.069	-0.15
2686	4.26	-0.0675	-0.15
2687	4.26	-0.069	-0.15
2688	4.26	-0.069	-0.15
2689	4.275	-0.069	-0.15
2690	4.275	-0.0675	-0.15
2691	4.275	-0.069	-0.15
2692	4.29	-0.069	-0.15
2693	4.29	-0.069	-0.15
2694	4.29	-0.069	-0.15
2695	4.29	-0.069	-0.15
2696	4.29	-0.069	-0.15
2697	4.305	-0.069	-0.15
2698	4.305	-0.069	-0.15
2699	4.305	-0.069	-0.15
2700	4.305	-0.069	-0.15
2701	4.305	-0.069	-0.15
2702	4.305	-0.069	-0.15
2703	4.29	-0.069	-0.15
2704	4.29	-0.069	0
2705	4.275	-0.069	-0.15
2706	4.275	-0.069	-0.15
2707	4.26	-0.069	-0.15
2708	4.26	-0.069	-0.15
2709	4.245	-0.069	-0.15
2710	4.245	-0.069	-0.15
2711	4.23	-0.069	-0.15
2712	4.23	-0.0675	-0.15
2713	4.23	-0.069	-0.15
2714	4.215	-0.069	-0.15
2715	4.215	-0.069	-0.15
2716	4.215	-0.069	0
2717	4.2	-0.069	0
2718	4.185	-0.069	0
2719	4.185	-0.069	0
2720	4.185	-0.069	0
2721	4.185	-0.069	-0.15
2722	4.17	-0.069	-0.15
2723	4.17	-0.0675	-0.15
2724	4.17	-0.069	-0.15
2725	4.17	-0.069	-0.15
2726	4.17	-0.069	0
2727	4.185	-0.0645	0.3
2728	4.185	-0.063	0.3
2729	4.185	-0.063	0.3
2730	4.185	-0.0645	0.3
2731	4.17	-0.063	0.3
2732	4.185	-0.063	0.3
2733	4.185	-0.063	0.3
2734	4.185	-0.063	0.3
2735	4.185	-0.0645	0.3
2736	4.185	-0.063	0.3
2737	4.185	-0.063	0.3
2738	4.17	-0.0645	0.3
2739	4.17	-0.0645	0.3
2740	4.185	-0.0645	0.3
2741	4.17	-0.0645	0.3
2742	4.17	-0.0645	0.3
2743	4.155	-0.063	0.3
2744	4.155	-0.0645	0.3
2745	4.155	-0.0645	0.3
2746	4.155	-0.0645	0.3
2747	4.155	-0.0645	0.3
2748	4.14	-0.063	0.3
2749	4.14	-0.0645	0.3
2750	4.14	-0.063	0.15
2751	4.125	-0.063	0.3
2752	4.125	-0.0645	0.3
2753	4.11	-0.0645	0.3
2754	4.11	-0.0645	0.3
2755	4.11	-0.0645	0.3
2756	4.095	-0.0645	0.3
2757	4.095	-0.0645	0.3
2758	4.08	-0.063	0.3
2759	4.08	-0.066	0.3
2760	4.065	-0.063	0.3
2761	4.065	-0.0645	0.3
2762	4.065	-0.066	0.3
2763	4.065	-0.063	0.3
2764	4.05	-0.0645	0.3
2765	4.05	-0.0645	0.3
2766	4.05	-0.0645	0.3
2767	4.035	-0.0645	0.3
2768	4.035	-0.0645	0.3
2769	4.035	-0.0645	0.3
2770	4.035	-0.0645	0.3
2771	4.035	-0.063	0.3
2772	4.035	-0.0645	0.3
2773	4.035	-0.0645	0.3
2774	4.035	-0.0615	0.3
2775	4.035	-0.063	0.3
2776	4.035	-0.0645	0.3
2777	4.05	-0.0645	0.3
2778	4.05	-0.063	0.3
2779	4.05	-0.0645	0.3
2780	4.05	-0.0645	0.3
2781	4.05	-0.0645	0.3
2782	4.065	-0.063	0.3
2783	4.065	-0.0645	0.3
2784	4.065	-0.0645	0.3
2785	4.08	-0.063	0.3
2786	4.08	-0.0645	0.3
2787	4.08	-0.063	0.3
2788	4.095	-0.066	0.3
2789	4.095	-0.0645	0.3
2790	4.11	-0.0645	0.3
2791	4.11	-0.066	0.3
2792	4.11	-0.0645	0.3
2793	4.11	-0.063	0.3
2794	4.11	-0.0645	0.3
2795	4.11	-0.0645	0.3
2796	4.11	-0.0645	0.3
2797	4.11	-0.0645	0.3
2798	4.11	-0.0645	0.3
2799	4.11	-0.063	0.3
2800	4.11	-0.0645	0.3
2801	4.11	-0.0645	0.3
2802	4.11	-0.066	0.3
2803	4.11	-0.0645	0.3
2804	4.11	-0.0645	0.3
2805	4.095	-0.0645	0.3
2806	4.065	-0.0645	0.3
2807	4.035	-0.0645	0.3
2808	4.035	-0.066	0.3
2809	4.035	-0.0645	0.3
2810	4.035	-0.063	0.3
2811	4.05	-0.0645	0.3
2812	4.065	-0.0645	0.3
2813	4.065	-0.063	0.3
2814	4.08	-0.0645	0.3
2815	4.095	-0.063	0.3
2816	4.095	-0.0645	0.3
2817	4.095	-0.0645	0.3
2818	4.11	-0.0645	0.3
2819	4.11	-0.0645	0.3
2820	4.11	-0.0645	0.3
2821	4.11	-0.0645	0.15
2822	4.11	-0.0645	0.3
2823	4.11	-0.0645	0.15
2824	4.125	-0.0645	0.3
2825	4.125	-0.0645	0.3
2826	4.125	-0.0645	0.3
2827	4.125	-0.0645	0.3
2828	4.125	-0.0645	0.3
2829	4.125	-0.0645	0.3
2830	4.125	-0.0645	0.3
2831	4.125	-0.063	0.3
2832	4.14	-0.0645	0.3
2833	4.14	-0.0645	0.3
2834	4.14	-0.0645	0.3
2835	4.155	-0.0645	0.3
2836	4.17	-0.0645	0.3
2837	4.17	-0.0645	0.3
2838	4.185	-0.0645	0.3
2839	4.185	-0.063	0.3
2840	4.185	-0.0645	0.3
2841	4.185	-0.0645	0.3
2842	4.185	-0.0645	0.3
2843	4.185	-0.0645	0.3
2844	4.185	-0.063	0.3
2845	4.185	-0.0645	0.3
2846	4.17	-0.0645	0.3
2847	4.17	-0.066	0.3
2848	4.17	-0.0645	0.3
2849	4.17	-0.0645	0.3
2850	4.155	-0.0645	0.3
2851	4.155	-0.063	0.3
2852	4.14	-0.0645	0.3
2853	4.14	-0.0645	0.3
2854	4.125	-0.063	0.3
2855	4.125	-0.0645	0.3
2856	4.11	-0.0645	0.3
2857	4.095	-0.0645	0.3
2858	4.095	-0.063	0.3
2859	4.095	-0.0645	0.3
2860	4.08	-0.0645	0.3
2861	4.08	-0.063	0.3
2862	4.08	-0.0645	0.3
2863	4.08	-0.0645	0.3
2864	4.08	-0.0645	0.3
2865	4.08	-0.063	0.3
2866	4.095	-0.063	0.3
2867	4.095	-0.0645	0.3
2868	4.095	-0.0645	0.3
2869	4.11	-0.0645	0.3
2870	4.11	-0.0645	0.3
2871	4.125	-0.0645	0.3
2872	4.125	-0.0645	0.3
2873	4.14	-0.0645	0.3
2874	4.155	-0.0645	0.3
2875	4.17	-0.0645	0.3
2876	4.17	-0.0645	0.3
2877	4.17	-0.066	0.3
2878	4.17	-0.0645	0.3
2879	4.185	-0.063	0.3
2880	4.185	-0.0645	0.3
2881	4.185	-0.0645	0.3
2882	4.185	-0.0645	0.3
2883	4.185	-0.0645	0.3
2884	4.185	-0.063	0.3
2885	4.17	-0.0645	0.3
2886	4.17	-0.0645	0.3
2887	4.155	-0.066	0.3
2888	4.155	-0.0645	0.3
2889	4.155	-0.0645	0.3
2890	4.155	-0.0645	0.3
2891	4.155	-0.0645	0.3
2892	4.155	-0.0645	0.3
2893	4.155	-0.0645	0.3
2894	4.14	-0.0645	0.3
2895	4.14	-0.0645	0.3
2896	4.14	-0.0645	0.3
2897	4.14	-0.0645	0.3
2898	4.14	-0.0645	0.3
2899	4.125	-0.0645	0.3
2900	4.125	-0.0645	0.3
2901	4.125	-0.0645	0.3
2902	4.11	-0.0645	0.3
2903	4.125	-0.0645	0.3
2904	4.125	-0.063	0.3
2905	4.125	-0.0645	0.3
2906	4.125	-0.0645	0.3
2907	4.125	-0.063	0.3
2908	4.125	-0.0645	0.3
2909	4.125	-0.0645	0.3
2910	4.11	-0.0645	0.3
2911	4.11	-0.0645	0.3
2912	4.11	-0.0645	0.3
2913	4.095	-0.0645	0.3
2914	4.08	-0.0645	0.3
2915	4.065	-0.0645	0.3
2916	4.05	-0.0645	0.3
2917	4.035	-0.0645	0.3
2918	4.02	-0.0645	0.3
2919	4.02	-0.0645	0.3
2920	4.005	-0.0645	0.3
2921	4.005	-0.063	0.3
2922	3.99	-0.0645	0.3
2923	3.99	-0.0645	0.3
2924	3.99	-0.0645	0.3
2925	3.99	-0.0645	0.3
2926	3.99	-0.0645	0.3
2927	3.975	-0.0645	0.3
2928	3.975	-0.0645	0.3
2929	3.975	-0.0645	0.3
2930	3.975	-0.0645	0.3
2931	3.975	-0.0645	0.3
2932	3.975	-0.0645	0.3
2933	3.975	-0.0645	0.3
2934	3.975	-0.0645	0.3
2935	3.99	-0.063	0.3
2936	3.99	-0.0645	0.3
2937	3.99	-0.0645	0.3
2938	3.99	-0.0645	0.3
2939	3.99	-0.0645	0.3
2940	3.99	-0.0645	0.3
2941	3.99	-0.066	0.3
2942	4.005	-0.0645	0.3
2943	4.005	-0.0645	0.3
2944	4.005	-0.063	0.3
2945	3.99	-0.0645	0.3
2946	3.99	-0.0645	0.3
2947	3.99	-0.0645	0.3
2948	3.99	-0.0645	0.3
2949	3.975	-0.0645	0.3
2950	3.975	-0.0645	0.3
2951	3.975	-0.0645	0.3
2952	3.96	-0.0645	0.3
2953	3.96	-0.0645	0.3
2954	3.96	-0.0645	0.3
2955	3.96	-0.0645	0.3
2956	3.945	-0.0645	0.3
2957	3.945	-0.0645	0.3
2958	3.945	-0.0645	0.3
2959	3.945	-0.0645	0.3
2960	3.93	-0.0645	0.3
2961	3.93	-0.0645	0.3
2962	3.93	-0.0645	0.3
2963	3.945	-0.0645	0.3
2964	3.945	-0.0645	0.3
2965	3.945	-0.0645	0.3
2966	3.945	-0.0645	0.3
2967	3.945	-0.063	0.3
2968	3.945	-0.0645	0.3
2969	3.96	-0.0645	0.3
2970	3.96	-0.063	0.3
2971	3.96	-0.063	0.3
2972	3.96	-0.0645	0.3
2973	3.96	-0.0645	0.3
2974	3.96	-0.063	0.3
2975	3.96	-0.063	0.3
2976	3.96	-0.0645	0.3
2977	3.96	-0.063	0.3
2978	3.96	-0.063	0.3
2979	3.96	-0.0615	0.3
2980	3.96	-0.0645	0.3
2981	3.96	-0.0645	0.3
2982	3.945	-0.0645	0.3
2983	3.945	-0.0645	0.3
2984	3.945	-0.0645	0.3
2985	3.945	-0.063	0.3
2986	3.945	-0.0645	0.3
2987	3.945	-0.063	0.3
2988	3.945	-0.0645	0.3
2989	3.945	-0.0645	0.3
2990	3.945	-0.063	0.3
2991	3.945	-0.063	0.3
2992	3.96	-0.063	0.3
2993	3.96	-0.063	0.3
2994	3.96	-0.063	0.3
2995	3.96	-0.063	0.3
2996	3.975	-0.063	0.3
2997	3.975	-0.063	0.3
2998	3.975	-0.0615	0.3
2999	3.975	-0.0615	0.3
3000	3.975	-0.063	0.3
3001	3.99	-0.0645	0.3
3002	4.005	-0.063	0.3
3003	4.005	-0.063	0.3
3004	4.02	-0.063	0.3
3005	4.035	-0.063	0.3
3006	4.035	-0.0645	0.3
3007	4.05	-0.063	0.3
3008	4.05	-0.063	0.3
3009	4.065	-0.063	0.3
3010	4.065	-0.063	0.3
3011	4.08	-0.0645	0.3
3012	4.095	-0.063	0.3
3013	4.095	-0.0615	0.3
3014	4.11	-0.0645	0.3
3015	4.11	-0.063	0.3
3016	4.11	-0.063	0.3
3017	4.125	-0.063	0.3
3018	4.125	-0.063	0.3
3019	4.125	-0.063	0.3
3020	4.125	-0.063	0.3
3021	4.125	-0.063	0.3
3022	4.125	-0.063	0.3
3023	4.125	-0.063	0.3
3024	4.11	-0.063	0.3
3025	4.11	-0.0645	0.3
3026	4.11	-0.063	0.3
3027	4.11	-0.063	0.3
3028	4.11	-0.0645	0.3
3029	4.11	-0.063	0.3
3030	4.11	-0.063	0.3
3031	4.11	-0.063	0.3
3032	4.11	-0.063	0.3
3033	4.125	-0.063	0.3
3034	4.125	-0.063	0.3
3035	4.11	-0.063	0.3
3036	4.11	-0.063	0.3
3037	4.11	-0.063	0.3
3038	4.11	-0.0645	0.3
3039	4.11	-0.063	0.3
3040	4.11	-0.063	0.3
3041	4.11	-0.063	0.3
3042	4.11	-0.0645	0.3
3043	4.11	-0.063	0.3
3044	4.11	-0.063	0.3
3045	4.11	-0.0645	0.3
3046	4.11	-0.0645	0.3
3047	4.125	-0.0645	0.3
3048	4.14	-0.0645	0.3
3049	4.125	-0.0645	0.3
3050	4.14	-0.066	0.3
3051	4.14	-0.0645	0.3
3052	4.14	-0.063	0.3
3053	4.14	-0.0645	0.3
3054	4.14	-0.063	0.3
3055	4.14	-0.0645	0.3
3056	4.14	-0.0645	0.3
3057	4.125	-0.063	0.3
3058	4.125	-0.063	0.3
3059	4.11	-0.063	0.3
3060	4.11	-0.0645	0.3
3061	4.095	-0.0645	0.3
3062	4.095	-0.0645	0.3
3063	4.08	-0.0645	0.3
3064	4.08	-0.0645	0.3
3065	4.08	-0.063	0.3
3066	4.065	-0.0645	0.3
3067	4.065	-0.0645	0.3
3068	4.05	-0.0645	0.3
3069	4.05	-0.0645	0.3
3070	4.05	-0.0645	0.3
3071	4.05	-0.0645	0.3
3072	4.05	-0.0645	0.3
3073	4.05	-0.0645	0.3
3074	4.05	-0.0645	0.3
3075	4.05	-0.0645	0.3
3076	4.05	-0.0645	0.3
3077	4.05	-0.0645	0.3
3078	4.05	-0.0645	0.3
3079	4.065	-0.0645	0.3
3080	4.065	-0.0645	0.3
3081	4.065	-0.0645	0.3
3082	4.08	-0.0645	0.3
3083	4.08	-0.0645	0.3
3084	4.08	-0.0645	0.3
3085	4.08	-0.0645	0.3
3086	4.095	-0.0645	0.3
3087	4.095	-0.063	0.3
3088	4.11	-0.0645	0.3
3089	4.11	-0.0645	0.3
3090	4.125	-0.0645	0.3
3091	4.14	-0.0645	0.3
3092	4.14	-0.0645	0.3
3093	4.155	-0.0645	0.3
3094	4.155	-0.0645	0.3
3095	4.155	-0.0645	0.3
3096	4.155	-0.0645	0.3
3097	4.155	-0.0645	0.3
3098	4.155	-0.0645	0.3
3099	4.155	-0.0645	0.3
3100	4.155	-0.0645	0.3
3101	4.14	-0.0645	0.3
3102	4.14	-0.0645	0.3
3103	4.125	-0.0645	0.3
3104	4.125	-0.0645	0.3
3105	4.11	-0.0645	0.3
3106	4.11	-0.063	0.3
3107	4.095	-0.0645	0.3
3108	4.05	-0.066	0.3
3109	4.02	-0.0645	0.3
3110	3.96	-0.0645	0.3
3111	3.87	-0.0645	0.3
3112	3.795	-0.0645	0.3
3113	3.735	-0.063	0.3
3114	3.735	-0.0645	0.3
3115	3.75	-0.0645	0.3
3116	3.78	-0.0645	0.3
3117	3.795	-0.0645	0.3
3118	3.825	-0.0645	0.3
3119	3.84	-0.0645	0.3
3120	3.84	-0.0645	0.3
3121	3.855	-0.0645	0.3
3122	3.855	-0.0645	0.3
3123	3.87	-0.0645	0.3
3124	3.87	-0.0645	0.3
3125	3.87	-0.0645	0.3
3126	3.87	-0.0645	0.3
3127	3.885	-0.063	0.3
3128	3.885	-0.0645	0.3
3129	3.885	-0.0645	0.3
3130	3.885	-0.0645	0.3
3131	3.87	-0.0645	0.3
3132	3.885	-0.0645	0.3
3133	3.87	-0.0645	0.3
3134	3.885	-0.0645	0.3
3135	3.87	-0.0645	0.3
3136	3.87	-0.0645	0.3
3137	3.87	-0.0645	0.3
3138	3.87	-0.0645	0.3
3139	3.87	-0.0645	0.3
3140	3.855	-0.0645	0.3
3141	3.855	-0.0645	0.3
3142	3.855	-0.0645	0.3
3143	3.855	-0.0645	0.3
3144	3.855	-0.0645	0.3
3145	3.855	-0.0645	0.3
3146	3.855	-0.0645	0.3
3147	3.855	-0.0645	0.3
3148	3.84	-0.0645	0.3
3149	3.84	-0.0645	0.3
3150	3.84	-0.0645	0.3
3151	3.84	-0.0645	0.3
3152	3.84	-0.0645	0.3
3153	3.84	-0.0645	0.3
3154	3.84	-0.0645	0.3
3155	3.84	-0.0645	0.3
3156	3.84	-0.0645	0.3
3157	3.825	-0.0645	0.3
3158	3.825	-0.0645	0.3
3159	3.825	-0.0645	0.3
3160	3.825	-0.0645	0.3
3161	3.825	-0.0645	0.3
3162	3.825	-0.0645	0.3
3163	3.825	-0.0645	0.3
3164	3.825	-0.0645	0.3
3165	3.81	-0.0645	0.3
3166	3.78	-0.0645	0.3
3167	3.735	-0.0645	0.3
3168	3.69	-0.0645	0.3
3169	3.675	-0.0645	0.3
3170	3.675	-0.0645	0.3
3171	3.69	-0.0645	0.3
3172	3.69	-0.0645	0.3
3173	3.705	-0.0645	0.3
3174	3.705	-0.0645	0.3
3175	3.69	-0.0645	0.3
3176	3.69	-0.0645	0.3
3177	3.66	-0.0645	0.3
3178	3.645	-0.0645	0.3
3179	3.63	-0.0645	0.3
3180	3.645	-0.0645	0.3
3181	3.645	-0.0645	0.3
3182	3.645	-0.0645	0.3
3183	3.66	-0.0645	0.3
3184	3.66	-0.0645	0.3
3185	3.66	-0.0645	0.3
3186	3.675	-0.0645	0.3
3187	3.66	-0.066	0.3
3188	3.66	-0.0645	0.3
3189	3.645	-0.0645	0.3
3190	3.66	-0.063	0.3
3191	3.675	-0.063	0.3
3192	3.69	-0.0645	0.3
3193	3.69	-0.0645	0.3
3194	3.705	-0.0645	0.3
3195	3.705	-0.0645	0.3
3196	3.705	-0.0645	0.3
3197	3.705	-0.0645	0.3
3198	3.705	-0.0645	0.3
3199	3.69	-0.0645	0.3
3200	3.66	-0.0645	0.3
3201	3.645	-0.0645	0.3
3202	3.66	-0.0645	0.3
3203	3.675	-0.0645	0.3
3204	3.675	-0.0645	0.3
3205	3.69	-0.0645	0.3
3206	3.69	-0.0645	0.3
3207	3.705	-0.0645	0.3
3208	3.705	-0.0645	0.3
3209	3.72	-0.0645	0.3
3210	3.72	-0.0645	0.3
3211	3.72	-0.0645	0.3
3212	3.735	-0.063	0.3
3213	3.735	-0.0645	0.3
3214	3.735	-0.0645	0.3
3215	3.735	-0.0645	0.3
3216	3.735	-0.0645	0.3
3217	3.735	-0.0645	0.3
3218	3.72	-0.0645	0.3
3219	3.72	-0.0645	0.3
3220	3.705	-0.0645	0.3
3221	3.705	-0.0645	0.3
3222	3.705	-0.066	0.3
3223	3.69	-0.0645	0.3
3224	3.69	-0.0645	0.3
3225	3.69	-0.0645	0.3
3226	3.69	-0.063	0.3
3227	3.69	-0.0645	0.3
3228	3.69	-0.0645	0.3
3229	3.69	-0.0645	0.3
3230	3.69	-0.0645	0.3
3231	3.69	-0.0645	0.3
3232	3.675	-0.0645	0.3
3233	3.66	-0.0645	0.3
3234	3.66	-0.0645	0.3
3235	3.66	-0.0645	0.3
3236	3.66	-0.0645	0.3
3237	3.66	-0.0645	0.3
3238	3.66	-0.0645	0.3
3239	3.66	-0.0645	0.3
3240	3.66	-0.0645	0.3
3241	3.66	-0.0645	0.3
3242	3.66	-0.0645	0.3
3243	3.66	-0.0645	0.3
3244	3.66	-0.0645	0.3
3245	3.66	-0.0645	0.3
3246	3.66	-0.0645	0.3
3247	3.66	-0.0645	0.3
3248	3.66	-0.0645	0.3
3249	3.66	-0.0645	0.3
3250	3.66	-0.0645	0.3
3251	3.66	-0.063	0.3
3252	3.675	-0.0645	0.3
3253	3.675	-0.0645	0.3
3254	3.675	-0.063	0.3
3255	3.675	-0.0645	0.3
3256	3.675	-0.0645	0.3
3257	3.675	-0.0645	0.3
3258	3.66	-0.0645	0.3
3259	3.66	-0.0645	0.3
3260	3.675	-0.0645	0.3
3261	3.675	-0.0645	0.3
3262	3.675	-0.0645	0.3
3263	3.69	-0.0645	0.3
3264	3.69	-0.0645	0.3
3265	3.69	-0.0645	0.3
3266	3.69	-0.063	0.3
3267	3.69	-0.0645	0.3
3268	3.69	-0.0645	0.3
3269	3.705	-0.0645	0.3
3270	3.705	-0.0645	0.3
3271	3.705	-0.0645	0.3
3272	3.705	-0.0645	0.3
3273	3.705	-0.0645	0.3
3274	3.705	-0.0645	0.3
3275	3.705	-0.0645	0.3
3276	3.705	-0.0645	0.3
3277	3.705	-0.0645	0.3
3278	3.705	-0.066	0.3
3279	3.705	-0.0645	0.3
3280	3.705	-0.0645	0.3
3281	3.705	-0.0645	0.3
3282	3.705	-0.0645	0.3
3283	3.705	-0.0645	0.3
3284	3.69	-0.0645	0.3
3285	3.69	-0.0645	0.3
3286	3.675	-0.0645	0.3
3287	3.675	-0.0645	0.3
3288	3.675	-0.0645	0.3
3289	3.675	-0.063	0.3
3290	3.675	-0.0645	0.3
3291	3.675	-0.0645	0.3
3292	3.675	-0.063	0.3
3293	3.675	-0.0645	0.3
3294	3.675	-0.0645	0.3
3295	3.675	-0.0645	0.3
3296	3.675	-0.0645	0.3
3297	3.675	-0.0645	0.3
3298	3.675	-0.0645	0.3
3299	3.69	-0.0645	0.3
3300	3.69	-0.0645	0.3
3301	3.69	-0.063	0.3
3302	3.69	-0.0645	0.3
3303	3.69	-0.0645	0.3
3304	3.66	-0.0645	0.3
3305	3.6	-0.0645	0.3
3306	3.585	-0.0645	0.3
3307	3.57	-0.0645	0.3
3308	3.555	-0.0645	0.3
3309	3.54	-0.0645	0.3
3310	3.525	-0.0645	0.3
3311	3.51	-0.0645	0.3
3312	3.495	-0.066	0.3
3313	3.51	-0.0645	0.3
3314	3.51	-0.0645	0.3
3315	3.525	-0.0645	0.3
3316	3.54	-0.0645	0.3
3317	3.54	-0.0645	0.3
3318	3.54	-0.0645	0.3
3319	3.555	-0.0645	0.3
3320	3.555	-0.0645	0.3
3321	3.57	-0.0645	0.3
3322	3.57	-0.063	0.3
3323	3.57	-0.0645	0.3
3324	3.585	-0.0645	0.3
3325	3.585	-0.063	0.3
3326	3.585	-0.0645	0.3
3327	3.6	-0.0645	0.3
3328	3.6	-0.0645	0.3
3329	3.6	-0.0645	0.3
3330	3.6	-0.0645	0.3
3331	3.6	-0.0645	0.3
3332	3.6	-0.0645	0.3
3333	3.615	-0.0645	0.3
3334	3.615	-0.0645	0.3
3335	3.615	-0.0645	0.3
3336	3.615	-0.0645	0.3
3337	3.6	-0.0645	0.3
3338	3.6	-0.0645	0.3
3339	3.6	-0.0645	0.3
3340	3.6	-0.0645	0.3
3341	3.6	-0.0645	0.3
3342	3.6	-0.0645	0.3
3343	3.6	-0.0645	0.3
3344	3.6	-0.0645	0.3
3345	3.585	-0.0645	0.3
3346	3.585	-0.0645	0.3
3347	3.585	-0.0645	0.3
3348	3.585	-0.0645	0.3
3349	3.585	-0.0645	0.3
3350	3.585	-0.0645	0.3
3351	3.585	-0.0645	0.3
3352	3.57	-0.0645	0.3
3353	3.57	-0.0645	0.3
3354	3.57	-0.0645	0.3
3355	3.57	-0.066	0.3
3356	3.57	-0.0645	0.3
3357	3.57	-0.0645	0.3
3358	3.555	-0.0645	0.3
3359	3.555	-0.0645	0.3
3360	3.555	-0.0645	0.3
3361	3.555	-0.0645	0.3
3362	3.555	-0.0645	0.3
3363	3.555	-0.063	0.3
3364	3.555	-0.0645	0.3
3365	3.555	-0.0645	0.3
3366	3.555	-0.0645	0.3
3367	3.555	-0.0645	0.3
3368	3.555	-0.0645	0.3
3369	3.555	-0.0645	0.3
3370	3.555	-0.0645	0.3
3371	3.555	-0.0645	0.3
3372	3.54	-0.0645	0.3
3373	3.54	-0.0645	0.3
3374	3.54	-0.0645	0.3
3375	3.54	-0.0645	0.3
3376	3.54	-0.0645	0.3
3377	3.525	-0.0645	0.3
3378	3.525	-0.0645	0.3
3379	3.51	-0.0645	0.3
3380	3.51	-0.0645	0.3
3381	3.495	-0.0645	0.3
3382	3.495	-0.0645	0.3
3383	3.495	-0.0645	0.3
3384	3.495	-0.0645	0.3
3385	3.495	-0.0645	0.3
3386	3.495	-0.0645	0.3
3387	3.495	-0.0645	0.3
3388	3.495	-0.0645	0.3
3389	3.495	-0.0645	0.3
3390	3.495	-0.0645	0.3
3391	3.495	-0.0645	0.3
3392	3.495	-0.0645	0.3
3393	3.495	-0.0645	0.3
3394	3.495	-0.0645	0.3
3395	3.495	-0.0645	0.3
3396	3.48	-0.0645	0.3
3397	3.48	-0.0645	0.3
3398	3.48	-0.063	0.3
3399	3.495	-0.063	0.3
3400	3.495	-0.0645	0.3
3401	3.495	-0.063	0.3
3402	3.495	-0.0645	0.3
3403	3.495	-0.0645	0.3
3404	3.495	-0.0645	0.3
3405	3.495	-0.0645	0.3
3406	3.51	-0.0645	0.3
3407	3.51	-0.0645	0.3
3408	3.51	-0.0645	0.3
3409	3.525	-0.063	0.3
3410	3.54	-0.0645	0.3
3411	3.54	-0.0645	0.3
3412	3.54	-0.0645	0.3
3413	3.555	-0.0645	0.3
3414	3.555	-0.0645	0.3
3415	3.57	-0.0645	0.3
3416	3.57	-0.0645	0.3
3417	3.57	-0.0645	0.3
3418	3.585	-0.0645	0.3
3419	3.6	-0.0645	0.3
3420	3.6	-0.0645	0.3
3421	3.615	-0.0645	0.3
3422	3.63	-0.0645	0.3
3423	3.63	-0.0645	0.3
3424	3.645	-0.063	0.3
3425	3.645	-0.0645	0.3
3426	3.645	-0.063	0.3
3427	3.66	-0.0645	0.3
3428	3.66	-0.0645	0.3
3429	3.675	-0.0645	0.3
3430	3.675	-0.0645	0.3
3431	3.675	-0.0645	0.3
3432	3.675	-0.0645	0.3
3433	3.675	-0.0645	0.3
3434	3.675	-0.0645	0.3
3435	3.675	-0.0645	0.3
3436	3.675	-0.0645	0.3
3437	3.675	-0.063	0.3
3438	3.675	-0.0645	0.3
3439	3.66	-0.0645	0.3
3440	3.66	-0.063	0.3
3441	3.66	-0.0645	0.3
3442	3.66	-0.0645	0.3
3443	3.66	-0.0645	0.3
3444	3.66	-0.0645	0.3
3445	3.66	-0.0645	0.3
3446	3.66	-0.063	0.3
3447	3.66	-0.063	0.3
3448	3.66	-0.0645	0.3
3449	3.66	-0.0645	0.3
3450	3.645	-0.0645	0.3
3451	3.66	-0.0645	0.3
3452	3.66	-0.0645	0.3
3453	3.66	-0.0645	0.3
3454	3.66	-0.0645	0.3
3455	3.645	-0.0645	0.3
3456	3.645	-0.0645	0.3
3457	3.645	-0.0645	0.3
3458	3.645	-0.0645	0.3
3459	3.645	-0.0645	0.3
3460	3.645	-0.0645	0.3
3461	3.63	-0.0645	0.3
3462	3.63	-0.063	0.3
3463	3.615	-0.0645	0.3
3464	3.615	-0.0645	0.3
3465	3.615	-0.063	0.3
3466	3.615	-0.0645	0.3
3467	3.615	-0.066	0.3
3468	3.615	-0.0645	0.3
3469	3.6	-0.0645	0.3
3470	3.6	-0.0645	0.3
3471	3.6	-0.063	0.3
3472	3.6	-0.0645	0.3
3473	3.6	-0.0645	0.3
3474	3.6	-0.0645	0.3
3475	3.615	-0.0645	0.3
3476	3.615	-0.0645	0.3
3477	3.615	-0.0645	0.3
3478	3.615	-0.0645	0.3
3479	3.615	-0.0645	0.3
3480	3.615	-0.063	0.3
3481	3.615	-0.0645	0.3
3482	3.615	-0.0645	0.3
3483	3.615	-0.0645	0.3
3484	3.615	-0.0645	0.3
3485	3.615	-0.0645	0.3
3486	3.615	-0.0645	0.3
3487	3.615	-0.0645	0.3
3488	3.6	-0.063	0.3
3489	3.6	-0.063	0.3
3490	3.6	-0.0645	0.3
3491	3.6	-0.0645	0.3
3492	3.6	-0.0645	0.3
3493	3.6	-0.0645	0.3
3494	3.6	-0.063	0.3
3495	3.6	-0.063	0.3
3496	3.6	-0.0645	0.3
3497	3.585	-0.0645	0.3
3498	3.585	-0.063	0.3
3499	3.585	-0.0645	0.3
3500	3.585	-0.0645	0.3
3501	3.585	-0.0645	0.3
3502	3.6	-0.0645	0.3
3503	3.6	-0.0645	0.3
3504	3.615	-0.0645	0.3
3505	3.615	-0.0645	0.3
3506	3.63	-0.063	0.3
3507	3.63	-0.0645	0.3
3508	3.63	-0.0645	0.3
3509	3.63	-0.0645	0.3
3510	3.63	-0.0645	0.3
3511	3.645	-0.0645	0.3
3512	3.645	-0.0645	0.3
3513	3.645	-0.0645	0.3
3514	3.645	-0.0645	0.3
3515	3.66	-0.0645	0.3
3516	3.66	-0.0645	0.3
3517	3.66	-0.0645	0.3
3518	3.66	-0.0645	0.3
3519	3.66	-0.0645	0.3
3520	3.66	-0.0645	0.3
3521	3.645	-0.0645	0.3
3522	3.645	-0.0645	0.3
3523	3.645	-0.0645	0.3
3524	3.645	-0.0645	0.3
3525	3.645	-0.0645	0.3
3526	3.645	-0.0645	0.3
3527	3.63	-0.0645	0.3
3528	3.63	-0.063	0.3
3529	3.63	-0.0645	0.3
3530	3.615	-0.0645	0.3
3531	3.615	-0.066	0.3
3532	3.615	-0.0645	0.3
3533	3.615	-0.0645	0.3
3534	3.615	-0.0645	0.3
3535	3.615	-0.0645	0.3
3536	3.615	-0.0645	0.3
3537	3.615	-0.0645	0.3
3538	3.615	-0.0645	0.3
3539	3.63	-0.0645	0.3
3540	3.645	-0.0645	0.3
3541	3.66	-0.0645	0.3
3542	3.66	-0.0645	0.3
3543	3.645	-0.0645	0.3
3544	3.63	-0.0645	0.3
3545	3.63	-0.0645	0.3
3546	3.63	-0.0645	0.3
3547	3.615	-0.0645	0.3
3548	3.615	-0.0645	0.3
3549	3.615	-0.0645	0.3
3550	3.615	-0.0645	0.3
3551	3.615	-0.0645	0.3
3552	3.615	-0.0645	0.3
3553	3.63	-0.0645	0.3
3554	3.63	-0.063	0.3
3555	3.63	-0.0645	0.3
3556	3.63	-0.0645	0.3
3557	3.63	-0.063	0.3
3558	3.645	-0.0645	0.3
3559	3.66	-0.063	0.3
3560	3.66	-0.0645	0.3
3561	3.675	-0.0645	0.3
3562	3.675	-0.063	0.3
3563	3.675	-0.0645	0.3
3564	3.675	-0.0645	0.3
3565	3.69	-0.0645	0.3
3566	3.69	-0.0645	0.3
3567	3.69	-0.0645	0.3
3568	3.69	-0.0645	0.3
3569	3.675	-0.0645	0.3
3570	3.675	-0.0645	0.3
3571	3.675	-0.0645	0.3
3572	3.675	-0.0645	0.3
3573	3.675	-0.0645	0.3
3574	3.675	-0.0645	0.3
3575	3.675	-0.0645	0.3
3576	3.675	-0.0645	0.3
3577	3.675	-0.063	0.3
3578	3.675	-0.0645	0.3
3579	3.675	-0.0645	0.3
3580	3.675	-0.063	0.3
3581	3.66	-0.0645	0.3
3582	3.66	-0.0645	0.3
3583	3.66	-0.066	0.3
3584	3.645	-0.0645	0.3
3585	3.645	-0.0645	0.3
3586	3.645	-0.063	0.3
3587	3.66	-0.0645	0.3
3588	3.66	-0.0645	0.3
3589	3.66	-0.063	0.3
3590	3.66	-0.0645	0.3
3591	3.66	-0.0645	0.3
3592	3.645	-0.0645	0.3
3593	3.645	-0.0645	0.3
3594	3.63	-0.0645	0.3
3595	3.615	-0.0645	0.3
3596	3.6	-0.0645	0.3
3597	3.585	-0.0645	0.3
3598	3.57	-0.0645	0.3
3599	3.54	-0.0645	0.3
3600	3.525	-0.0645	0.3
3601	3.525	-0.0645	0.3
3602	3.525	-0.0645	0.3
3603	3.525	-0.0645	0.3
3604	3.525	-0.0645	0.3
3605	3.525	-0.063	0.3
3606	3.54	-0.0645	0.3
3607	3.555	-0.0645	0.3
3608	3.555	-0.0645	0.3
3609	3.555	-0.0645	0.3
3610	3.555	-0.0645	0.3
3611	3.555	-0.063	0.3
3612	3.54	-0.0645	0.3
3613	3.54	-0.0645	0.3
3614	3.525	-0.0645	0.3
3615	3.525	-0.0645	0.3
3616	3.54	-0.0645	0.3
3617	3.54	-0.0645	0.3
3618	3.555	-0.0645	0.3
3619	3.57	-0.0645	0.3
3620	3.585	-0.0645	0.3
3621	3.585	-0.0645	0.3
3622	3.6	-0.0645	0.3
3623	3.6	-0.0645	0.3
3624	3.615	-0.0645	0.3
3625	3.63	-0.0645	0.3
3626	3.63	-0.063	0.3
3627	3.63	-0.0645	0.3
3628	3.645	-0.0645	0.3
3629	3.645	-0.0645	0.3
3630	3.66	-0.0645	0.3
3631	3.66	-0.0645	0.3
3632	3.675	-0.0645	0.3
3633	3.675	-0.0645	0.3
3634	3.675	-0.0645	0.3
3635	3.69	-0.0645	0.3
3636	3.69	-0.0645	0.3
3637	3.69	-0.0645	0.3
3638	3.69	-0.0645	0.3
3639	3.69	-0.0645	0.3
3640	3.705	-0.0645	0.3
3641	3.705	-0.0645	0.3
3642	3.705	-0.0645	0.3
3643	3.705	-0.063	0.3
3644	3.705	-0.0645	0.3
3645	3.72	-0.0645	0.3
3646	3.72	-0.0645	0.3
3647	3.72	-0.0645	0.3
3648	3.72	-0.0645	0.3
3649	3.72	-0.0645	0.3
3650	3.72	-0.0645	0.3
3651	3.72	-0.0645	0.3
3652	3.72	-0.0645	0.3
3653	3.72	-0.0645	0.3
3654	3.72	-0.0645	0.3
3655	3.705	-0.0645	0.3
3656	3.705	-0.0645	0.3
3657	3.705	-0.0645	0.3
3658	3.705	-0.063	0.3
3659	3.705	-0.0645	0.3
3660	3.69	-0.0645	0.3
3661	3.69	-0.0645	0.3
3662	3.69	-0.0645	0.3
3663	3.69	-0.0645	0.3
3664	3.705	-0.0645	0.3
3665	3.705	-0.0645	0.3
3666	3.705	-0.0645	0.3
3667	3.705	-0.0645	0.3
3668	3.705	-0.0645	0.3
3669	3.705	-0.0645	0.3
3670	3.72	-0.0645	0.3
3671	3.72	-0.0645	0.3
3672	3.72	-0.066	0.3
3673	3.735	-0.063	0.3
3674	3.735	-0.0645	0.3
3675	3.735	-0.0645	0.3
3676	3.75	-0.0645	0.3
3677	3.75	-0.0645	0.3
3678	3.75	-0.0645	0.3
3679	3.75	-0.0645	0.3
3680	3.75	-0.0645	0.3
3681	3.75	-0.066	0.15
3682	3.75	-0.0645	0.3
3683	3.735	-0.066	0.3
3684	3.735	-0.0645	0.3
3685	3.735	-0.0645	0.3
3686	3.735	-0.0645	0.3
3687	3.735	-0.0645	0.3
3688	3.735	-0.0645	0.3
3689	3.735	-0.0645	0.3
3690	3.735	-0.0645	0.3
3691	3.735	-0.0645	0.3
3692	3.735	-0.0645	0.3
3693	3.735	-0.0645	0.15
3694	3.72	-0.0645	0.15
3695	3.705	-0.0645	0.3
3696	3.705	-0.0645	0.3
3697	3.69	-0.0645	0.3
3698	3.675	-0.0645	0.3
3699	3.615	-0.0645	0.3
3700	3.555	-0.0645	0.3
3701	3.465	-0.0645	0.3
3702	3.405	-0.063	0.3
3703	3.42	-0.0645	0.3
3704	3.435	-0.0645	0.3
3705	3.45	-0.0645	0.15
3706	3.48	-0.063	0.3
3707	3.495	-0.0645	0.3
3708	3.51	-0.063	0.3
3709	3.51	-0.0645	0.3
3710	3.525	-0.0645	0.3
3711	3.525	-0.0645	0.3
3712	3.54	-0.0645	0.3
3713	3.555	-0.0645	0.15
3714	3.555	-0.0645	0.3
3715	3.555	-0.0645	0.3
3716	3.57	-0.063	0.3
3717	3.57	-0.0645	0.3
3718	3.585	-0.0645	0.3
3719	3.585	-0.0645	0.3
3720	3.585	-0.0645	0.3
3721	3.57	-0.0645	0.3
3722	3.585	-0.0645	0.3
3723	3.585	-0.066	0.3
3724	3.585	-0.0645	0.3
3725	3.6	-0.063	0.15
3726	3.6	-0.0645	0.3
3727	3.615	-0.0645	0.3
3728	3.615	-0.0645	0.3
3729	3.615	-0.0645	0.3
3730	3.63	-0.0645	0.3
3731	3.63	-0.0645	0.3
3732	3.63	-0.063	0.3
3733	3.63	-0.0645	0.3
3734	3.63	-0.0645	0.3
3735	3.63	-0.0645	0.15
3736	3.63	-0.063	0.3
3737	3.63	-0.0645	0.15
3738	3.645	-0.063	0.3
3739	3.645	-0.0645	0.3
3740	3.66	-0.0645	0.3
3741	3.66	-0.0645	0.3
3742	3.675	-0.0645	0.3
3743	3.675	-0.0645	0.3
3744	3.675	-0.0645	0.3
3745	3.69	-0.0645	0.3
3746	3.69	-0.0645	0.3
3747	3.705	-0.0645	0.3
3748	3.705	-0.0645	0.3
3749	3.705	-0.0645	0.3
3750	3.705	-0.0645	0.3
3751	3.705	-0.0645	0.3
3752	3.705	-0.063	0.3
3753	3.705	-0.0645	0.3
3754	3.72	-0.0645	0.3
3755	3.72	-0.0645	0.3
3756	3.72	-0.0645	0.3
3757	3.72	-0.063	0.3
3758	3.735	-0.0645	0.3
3759	3.735	-0.0645	0.3
3760	3.735	-0.0645	0.3
3761	3.75	-0.0645	0.3
3762	3.75	-0.0645	0.3
3763	3.75	-0.0645	0.3
3764	3.75	-0.0645	0.3
3765	3.75	-0.0645	0.3
3766	3.765	-0.0645	0.3
3767	3.765	-0.0645	0.3
3768	3.78	-0.0645	0.3
3769	3.795	-0.063	0.3
3770	3.795	-0.0645	0.3
3771	3.795	-0.0645	0.3
3772	3.795	-0.0645	0.3
3773	3.81	-0.0645	0.3
3774	3.81	-0.0645	0.3
3775	3.825	-0.063	0.3
3776	3.825	-0.0645	0.3
3777	3.84	-0.0645	0.3
3778	3.855	-0.0645	0.3
3779	3.855	-0.063	0.3
3780	3.87	-0.0645	0.3
3781	3.87	-0.0645	0.3
3782	3.885	-0.0645	0.3
3783	3.9	-0.063	0.3
3784	3.9	-0.0645	0.3
3785	3.915	-0.0645	0.3
3786	3.915	-0.0645	0.3
3787	3.915	-0.063	0.3
3788	3.93	-0.0645	0.3
3789	3.93	-0.0645	0.3
3790	3.945	-0.0645	0.3
3791	3.945	-0.0645	0.3
3792	3.96	-0.0645	0.3
3793	3.96	-0.0645	0.3
3794	3.975	-0.066	0.3
3795	3.99	-0.0645	0.3
3796	4.005	-0.0645	0.3
3797	4.02	-0.0645	0.3
3798	4.035	-0.0645	0.3
3799	4.035	-0.0645	0.3
3800	4.05	-0.066	0.3
3801	4.05	-0.0645	0.3
3802	4.065	-0.0645	0.3
3803	4.065	-0.0645	0.3
3804	4.065	-0.063	0.3
3805	4.065	-0.0645	0.3
3806	4.065	-0.0645	0.3
3807	4.065	-0.0645	0.3
3808	4.065	-0.0645	0.3
3809	4.065	-0.063	0.3
3810	4.065	-0.0645	0.3
3811	4.065	-0.0645	0.3
3812	4.065	-0.0645	0.3
3813	4.065	-0.0645	0.3
3814	4.065	-0.0645	0.3
3815	4.065	-0.0645	0.3
3816	4.065	-0.0645	0.3
3817	4.08	-0.0645	0.3
3818	4.08	-0.0645	0.3
3819	4.08	-0.0645	0.3
3820	4.08	-0.0645	0.3
3821	4.08	-0.0645	0.3
3822	4.08	-0.0645	0.3
3823	4.08	-0.063	0.3
3824	4.095	-0.0645	0.3
3825	4.095	-0.0645	0.3
3826	4.095	-0.0645	0.3
3827	4.095	-0.0645	0.3
3828	4.095	-0.0645	0.3
3829	4.095	-0.0645	0.3
3830	4.11	-0.0645	0.3
3831	4.125	-0.0645	0.3
3832	4.155	-0.0645	0.3
3833	4.17	-0.063	0.3
3834	4.185	-0.0645	0.3
3835	4.185	-0.0645	0.3
3836	4.185	-0.0645	0.3
3837	4.17	-0.0645	0.3
3838	4.155	-0.0645	0.3
3839	4.14	-0.066	0.15
3840	4.14	-0.0645	0.3
3841	4.125	-0.0645	0.15
3842	4.11	-0.0645	0.15
3843	4.11	-0.063	0.3
3844	4.095	-0.0645	0.15
3845	4.095	-0.0645	0.3
3846	4.095	-0.0645	0.15
3847	4.095	-0.0645	0.15
3848	4.095	-0.063	0.15
3849	4.095	-0.0645	0.15
3850	4.08	-0.0645	0.3
3851	4.08	-0.0645	0.15
3852	4.08	-0.0645	0.15
3853	4.095	-0.0645	0.15
3854	4.095	-0.066	0.3
3855	4.095	-0.0645	0.3
3856	4.095	-0.0645	0.3
3857	4.095	-0.0645	0.15
3858	4.095	-0.0645	0.15
3859	4.095	-0.0645	0.15
3860	4.095	-0.0645	0.3
3861	4.08	-0.0645	0.3
3862	4.08	-0.0645	0.3
3863	4.065	-0.0645	0.3
3864	4.02	-0.0645	0.15
3865	4.02	-0.0645	0.3
3866	4.02	-0.0645	0.3
3867	4.02	-0.0645	0.3
3868	4.02	-0.0645	0.15
3869	4.035	-0.0645	0.3
3870	4.035	-0.0645	0.3
3871	4.05	-0.0645	0.3
3872	4.05	-0.0645	0.3
3873	4.065	-0.0645	0.3
3874	4.065	-0.0645	0.3
3875	4.08	-0.0645	0.3
3876	4.08	-0.0645	0.3
3877	4.095	-0.0645	0.3
3878	4.095	-0.0645	0.3
3879	4.095	-0.0645	0.3
3880	4.095	-0.0645	0.3
3881	4.11	-0.0645	0.3
3882	4.11	-0.0645	0.3
3883	4.11	-0.0645	0.3
3884	4.11	-0.0645	0.3
3885	4.125	-0.0645	0.3
3886	4.125	-0.0645	0.3
3887	4.14	-0.0645	0.3
3888	4.14	-0.0645	0.3
3889	4.14	-0.0645	0.3
3890	4.155	-0.066	0.3
3891	4.155	-0.0645	0.3
3892	4.155	-0.0645	0.3
3893	4.14	-0.0645	0.3
3894	4.14	-0.0645	0.15
3895	4.14	-0.0645	0.3
3896	4.14	-0.0645	0.15
3897	4.14	-0.0645	0.15
3898	4.14	-0.0645	0.3
3899	4.14	-0.0645	0.3
3900	4.125	-0.0645	0.3
3901	4.125	-0.0645	0.15
3902	4.125	-0.0645	0.15
3903	4.125	-0.0645	0.15
3904	4.11	-0.0645	0.15
3905	4.11	-0.0645	0.3
3906	4.095	-0.0645	0.15
3907	4.095	-0.0645	0.3
3908	4.095	-0.0645	0.3
3909	4.08	-0.0645	0.15
3910	4.08	-0.0645	0.15
3911	4.065	-0.063	0.15
3912	4.065	-0.0645	0.3
3913	4.065	-0.0645	0.15
3914	4.065	-0.0645	0.15
3915	4.065	-0.0645	0.3
3916	4.065	-0.0645	0.15
3917	4.065	-0.0645	0.3
3918	4.065	-0.0645	0.15
3919	4.08	-0.0645	0.15
3920	4.095	-0.0645	0.15
3921	4.095	-0.0645	0.15
3922	4.095	-0.0645	0.15
3923	4.095	-0.0645	0.15
3924	4.11	-0.0645	0.15
3925	4.11	-0.0645	0.15
3926	4.11	-0.0645	0.15
3927	4.11	-0.0645	0.15
3928	4.11	-0.0645	0.15
3929	4.095	-0.0645	0.3
3930	4.095	-0.0645	0.3
3931	4.095	-0.0645	0.3
3932	4.095	-0.0645	0.15
3933	4.095	-0.0645	0.3
3934	4.095	-0.0645	0.3
3935	4.11	-0.0645	0.15
3936	4.11	-0.0645	0.15
3937	4.11	-0.0645	0.3
3938	4.125	-0.0645	0.3
3939	4.125	-0.0645	0.3
3940	4.14	-0.0645	0.3
3941	4.14	-0.0645	0.3
3942	4.155	-0.0645	0.3
3943	4.155	-0.0645	0.3
3944	4.17	-0.0645	0.3
3945	4.17	-0.0645	0.3
3946	4.17	-0.0645	0.3
3947	4.17	-0.063	0.3
3948	4.17	-0.0645	0.3
3949	4.17	-0.0645	0.3
3950	4.17	-0.0645	0.3
3951	4.185	-0.0645	0.15
3952	4.185	-0.0645	0.15
3953	4.185	-0.0645	0.15
3954	4.185	-0.0645	0.3
3955	4.185	-0.0645	0.15
3956	4.185	-0.0645	0.15
3957	4.185	-0.0645	0.15
3958	4.17	-0.0645	0.15
3959	4.17	-0.0645	0.15
3960	4.17	-0.0645	0.15
3961	4.17	-0.0645	0.15
3962	4.17	-0.0645	0.15
3963	4.17	-0.0645	0.3
3964	4.17	-0.063	0.15
3965	4.17	-0.0645	0.15
3966	4.17	-0.0645	0.15
3967	4.17	-0.0645	0.15
3968	4.17	-0.0645	0.15
3969	4.17	-0.0645	0.15
3970	4.17	-0.0645	0.15
3971	4.17	-0.063	0.15
3972	4.155	-0.0645	0.15
3973	4.17	-0.0645	0.15
3974	4.17	-0.0645	0.15
3975	4.17	-0.063	0.15
3976	4.17	-0.0645	0.15
3977	4.17	-0.0645	0.15
3978	4.17	-0.0645	0.15
3979	4.17	-0.0645	0.15
3980	4.17	-0.0645	0.15
3981	4.17	-0.0645	0.15
3982	4.17	-0.0645	0.15
3983	4.185	-0.0645	0.15
3984	4.185	-0.0645	0.15
3985	4.2	-0.0645	0.15
3986	4.215	-0.0645	0.15
3987	4.215	-0.0645	0.15
3988	4.23	-0.0645	0.15
3989	4.23	-0.0645	0.15
3990	4.245	-0.0645	0.15
3991	4.245	-0.0645	0.15
3992	4.245	-0.0645	0.15
3993	4.245	-0.0645	0.15
3994	4.245	-0.0645	0.15
3995	4.245	-0.0645	0.15
3996	4.245	-0.063	0.15
3997	4.245	-0.0645	0.15
3998	4.26	-0.063	0.15
3999	4.245	-0.0645	0.15
4000	4.245	-0.0645	0.15
4001	4.245	-0.0645	0.15
4002	4.26	-0.063	0.15
4003	4.26	-0.063	0.15
4004	4.26	-0.0645	0.15
4005	4.26	-0.0645	0.15
4006	4.26	-0.0645	0.15
4007	4.26	-0.0645	0.15
4008	4.26	-0.0645	0.15
4009	4.245	-0.0645	0.15
4010	4.245	-0.0645	0.15
4011	4.245	-0.0645	0.15
4012	4.245	-0.063	0.15
4013	4.245	-0.066	0.15
4014	4.245	-0.0645	0.15
4015	4.23	-0.0645	0.15
4016	4.245	-0.0645	0.15
4017	4.215	-0.0765	-0.9
4018	4.17	-0.093	-3.15
4019	4.11	-0.114	-6
4020	4.05	-0.135	-8.7
4021	3.99	-0.1515	-11.1
4022	3.93	-0.1725	-13.8
4023	3.855	-0.1935	-17.25
4024	3.78	-0.222	-21.15
4025	3.72	-0.237	-23.4
4026	3.66	-0.255	-26.25
4027	3.585	-0.279	-29.55
4028	3.51	-0.3045	-33.3
4029	3.435	-0.3285	-36.9
4030	3.39	-0.3435	-39.15
4031	3.33	-0.363	-42.3
4032	3.255	-0.384	-45.9
4033	3.18	-0.4095	-49.65
4034	3.075	-0.441	-54.45
4035	3.015	-0.4725	-58.35
4036	2.925	-0.4935	-61.65
4037	2.88	-0.5145	-64.35
4038	2.805	-0.54	-67.65
4039	2.73	-0.561	-70.05
4040	2.655	-0.588	-73.5
4041	2.58	-0.6255	-77.4
4042	2.49	-0.6615	-81.45
4043	2.445	-0.6615	-84.45
4044	2.385	-0.69	-87.15
4045	2.355	-0.72	-89.4
4046	2.325	-0.741	-91.05
4047	2.28	-0.759	-91.05
4048	2.235	-0.789	-93.9
4049	2.16	-0.825	-97.05
4050	2.1	-0.864	-100.5
4051	2.07	-0.903	-103.8
4052	2.025	-0.9195	-105.3
4053	1.965	-0.9555	-108.15
4054	1.935	-0.9795	-110.1
4055	1.86	-1.011	-112.65
4056	1.815	-1.0515	-115.5
4057	1.785	-1.077	-117.45
4058	1.74	-1.0995	-119.25
4059	1.695	-1.131	-121.65
4060	1.665	-1.1655	-124.05
4061	1.65	-1.179	-124.95
4062	1.62	-1.194	-126
4063	1.605	-1.215	-127.65
4064	1.56	-1.2285	-128.55
4065	1.53	-1.2555	-130.35
4066	1.5	-1.275	-131.7
4067	1.485	-1.287	-132.45
4068	1.47	-1.3035	-133.65
4069	1.455	-1.323	-134.55
4070	1.41	-1.335	-135.3
4071	1.38	-1.3635	-137.25
4072	1.35	-1.3935	-138.9
4073	1.32	-1.4115	-140.25
4074	1.29	-1.437	-141.75
4075	1.245	-1.4655	-143.4
4076	1.2	-1.4985	-145.35
4077	1.14	-1.533	-147.45
4078	1.095	-1.587	-150.45
4079	1.05	-1.626	-152.55
4080	1.035	-1.659	-154.05
4081	0.99	-1.6875	-155.55
4082	0.945	-1.7235	-157.65
4083	0.9	-1.776	-160.35
4084	0.885	-1.815	-162.3
4085	0.9	-1.827	-162.9
4086	0.9	-1.827	-162.9
4087	0.93	-1.809	-162.3
4088	0.96	-1.773	-160.5
4089	1.02	-1.7355	-158.85
4090	1.11	-1.689	-156.6
4091	1.275	-1.5795	-151.2
4092	1.425	-1.44	-143.55
4093	1.605	-1.3185	-136.35
4094	1.965	-1.1715	-126.9
4095	2.595	-0.897	-106.05
4096	2.865	-0.615	-79.8
4097	3.075	-0.5115	-67.5
4098	3.195	-0.4485	-59.1
4099	3.33	-0.408	-53.4
4100	3.57	-0.357	-45.6
4101	3.75	-0.285	-34.2
4102	3.975	-0.2295	-25.5
4103	4.245	-0.1515	-13.65
4104	4.455	-0.0675	-0.75
4105	4.5	-0.0075	8.1
4106	4.485	0	9.45
4107	4.485	0	9.45
4108	4.47	0	9.6
4109	4.455	0	9.6
4110	4.455	0	9.6
4111	4.44	0	9.6
4112	4.41	-0.003	9.3
4113	4.395	-0.0105	8.1
4114	4.365	-0.0165	7.35
4115	4.32	-0.024	6
4116	4.29	-0.0405	4.2
4117	4.26	-0.0495	2.85
4118	4.26	-0.0555	2.1
4119	4.245	-0.0555	1.95
4120	4.245	-0.0555	1.95
4121	4.23	-0.057	1.95
4122	4.23	-0.0555	1.95
4123	4.215	-0.0555	1.95
4124	4.2	-0.0555	1.95
4125	4.185	-0.0555	1.95
4126	4.185	-0.0555	1.95
4127	4.17	-0.0555	1.95
4128	4.14	-0.057	1.8
4129	4.14	-0.0585	1.35
4130	4.125	-0.06	1.35
4131	4.125	-0.06	1.35
4132	4.11	-0.06	1.35
4133	4.11	-0.06	1.35
4134	4.08	-0.06	1.35
4135	4.065	-0.066	0.45
4136	4.065	-0.0675	0.45
4137	4.05	-0.066	0.45
4138	4.05	-0.0675	0.45
4139	4.05	-0.066	0.45
4140	4.035	-0.0675	0.45
4141	4.035	-0.0675	0.45
4142	4.035	-0.0675	0.45
4143	4.035	-0.0675	0.45
4144	4.035	-0.066	0.45
4145	4.02	-0.0675	0.45
4146	4.005	-0.0675	0.45
4147	4.005	-0.0675	0.45
4148	4.005	-0.0675	0.45
4149	3.99	-0.0675	0.45
4150	3.99	-0.0675	0.45
4151	3.975	-0.0675	0.45
4152	3.975	-0.069	0.45
4153	3.975	-0.0675	0.45
4154	3.975	-0.0675	0.45
4155	3.975	-0.0675	0.45
4156	3.975	-0.066	0.45
4157	3.99	-0.0675	0.45
4158	3.99	-0.0675	0.45
4159	3.99	-0.0675	0.45
4160	3.99	-0.0675	0.45
4161	3.99	-0.0675	0.45
4162	3.99	-0.0675	0.45
4163	3.99	-0.0675	0.45
4164	3.99	-0.0675	0.45
4165	3.99	-0.0675	0.45
4166	3.99	-0.0675	0.45
4167	4.005	-0.069	0.45
4168	4.005	-0.0675	0.45
4169	4.005	-0.0675	0.45
4170	4.005	-0.0675	0.45
4171	4.005	-0.0675	0.45
4172	4.005	-0.0675	0.45
4173	4.02	-0.069	0.45
4174	4.02	-0.0675	0.45
4175	4.02	-0.0675	0.45
4176	4.035	-0.0675	0.45
4177	4.035	-0.0675	0.45
4178	4.035	-0.0675	0.45
4179	4.035	-0.0675	0.45
4180	4.035	-0.0675	0.45
4181	4.05	-0.0675	0.45
4182	4.05	-0.0675	0.45
4183	4.05	-0.0675	0.45
4184	4.05	-0.0675	0.45
4185	4.05	-0.0675	0.45
4186	4.05	-0.0675	0.45
4187	4.05	-0.0675	0.45
4188	4.05	-0.0675	0.45
4189	4.05	-0.0675	0.45
4190	4.05	-0.0675	0.45
4191	4.05	-0.0675	0.45
4192	4.05	-0.0675	0.45
4193	4.05	-0.0675	0.45
4194	4.05	-0.0675	0.45
4195	4.05	-0.0675	0.45
4196	4.05	-0.0675	0.45
4197	4.065	-0.0675	0.45
4198	4.065	-0.0675	0.45
4199	4.065	-0.0675	0.45
4200	4.065	-0.0675	0.45
4201	4.065	-0.0675	0.45
4202	4.065	-0.0675	0.45
4203	4.065	-0.0675	0.45
4204	4.05	-0.0675	0.45
4205	4.05	-0.0675	0.45
4206	4.05	-0.0675	0.45
4207	4.065	-0.0675	0.45
4208	4.065	-0.0675	0.45
4209	4.065	-0.0675	0.45
4210	4.065	-0.0675	0.45
4211	4.08	-0.069	0.45
4212	4.08	-0.0675	0.45
4213	4.065	-0.0675	0.45
4214	4.065	-0.0675	0.45
4215	4.065	-0.066	0.45
4216	4.065	-0.0675	0.45
4217	4.05	-0.0675	0.45
4218	4.05	-0.0675	0.45
4219	4.05	-0.0675	0.45
4220	4.05	-0.0675	0.45
4221	4.05	-0.0675	0.45
4222	4.035	-0.0675	0.45
4223	4.035	-0.0675	0.45
4224	4.035	-0.066	0.45
4225	4.035	-0.0675	0.45
4226	4.02	-0.0675	0.45
4227	4.02	-0.0675	0.45
4228	4.02	-0.0675	0.45
4229	4.005	-0.0675	0.45
4230	4.005	-0.0675	0.45
4231	4.005	-0.0675	0.45
4232	4.005	-0.0675	0.45
4233	4.005	-0.0675	0.45
4234	3.99	-0.066	0.45
4235	3.99	-0.066	0.45
4236	3.99	-0.0675	0.45
4237	3.99	-0.066	0.45
4238	3.99	-0.066	0.45
4239	3.99	-0.066	0.45
4240	3.99	-0.066	0.45
4241	3.975	-0.066	0.45
4242	3.975	-0.066	0.45
4243	3.975	-0.066	0.45
4244	3.975	-0.066	0.45
4245	3.975	-0.066	0.45
4246	3.975	-0.066	0.45
4247	3.96	-0.066	0.45
4248	3.96	-0.0675	0.45
4249	3.96	-0.066	0.45
4250	3.945	-0.066	0.45
4251	3.945	-0.066	0.45
4252	3.945	-0.066	0.45
4253	3.945	-0.0675	0.45
4254	3.945	-0.066	0.45
4255	3.945	-0.066	0.45
4256	3.945	-0.0645	0.45
4257	3.945	-0.066	0.45
4258	3.96	-0.066	0.45
4259	3.96	-0.066	0.45
4260	3.96	-0.066	0.45
4261	3.945	-0.066	0.45
4262	3.945	-0.066	0.45
4263	3.945	-0.066	0.45
4264	3.945	-0.066	0.45
4265	3.945	-0.066	0.45
4266	3.945	-0.066	0.45
4267	3.93	-0.066	0.45
4268	3.93	-0.066	0.45
4269	3.93	-0.066	0.45
4270	3.93	-0.066	0.45
4271	3.93	-0.066	0.45
4272	3.93	-0.066	0.45
4273	3.915	-0.066	0.45
4274	3.915	-0.066	0.45
4275	3.915	-0.066	0.45
4276	3.915	-0.0675	0.45
4277	3.915	-0.066	0.45
4278	3.915	-0.0645	0.45
4279	3.93	-0.066	0.45
4280	3.93	-0.066	0.45
4281	3.93	-0.066	0.45
4282	3.93	-0.066	0.45
4283	3.93	-0.066	0.45
4284	3.93	-0.066	0.45
4285	3.93	-0.066	0.45
4286	3.93	-0.066	0.45
4287	3.93	-0.066	0.45
4288	3.93	-0.0675	0.45
4289	3.93	-0.066	0.45
4290	3.93	-0.0645	0.45
4291	3.93	-0.0675	0.45
4292	3.93	-0.0645	0.45
4293	3.93	-0.066	0.45
4294	3.945	-0.066	0.45
4295	3.945	-0.066	0.45
4296	3.945	-0.066	0.45
4297	3.945	-0.066	0.45
4298	3.945	-0.066	0.45
4299	3.945	-0.066	0.45
4300	3.945	-0.066	0.45
4301	3.945	-0.0675	0.45
4302	3.945	-0.066	0.45
4303	3.945	-0.0645	0.45
4304	3.945	-0.066	0.45
4305	3.945	-0.066	0.45
4306	3.945	-0.066	0.45
4307	3.96	-0.066	0.45
4308	3.96	-0.066	0.45
4309	3.96	-0.066	0.45
4310	3.975	-0.066	0.45
4311	3.975	-0.066	0.45
4312	3.975	-0.066	0.45
4313	3.975	-0.066	0.45
4314	3.975	-0.066	0.45
4315	3.99	-0.066	0.45
4316	3.975	-0.066	0.45
4317	3.99	-0.066	0.45
4318	3.99	-0.0675	0.45
4319	3.99	-0.066	0.45
4320	3.99	-0.066	0.45
4321	3.99	-0.066	0.45
4322	4.005	-0.0675	0.45
4323	3.99	-0.0675	0.45
4324	3.99	-0.066	0.45
4325	3.99	-0.0675	0.45
4326	3.99	-0.0675	0.45
4327	3.975	-0.0675	0.45
4328	3.975	-0.0675	0.45
4329	3.975	-0.0675	0.45
4330	3.975	-0.0675	0.45
4331	3.975	-0.066	0.45
4332	3.975	-0.066	0.45
4333	3.96	-0.0675	0.45
4334	3.96	-0.0675	0.45
4335	3.945	-0.0675	0.45
4336	3.945	-0.0675	0.45
4337	3.945	-0.0675	0.45
4338	3.93	-0.0675	0.45
4339	3.93	-0.0675	0.45
4340	3.93	-0.0675	0.45
4341	3.93	-0.066	0.45
4342	3.93	-0.0675	0.45
4343	3.93	-0.0675	0.45
4344	3.93	-0.0675	0.45
4345	3.93	-0.0675	0.45
4346	3.93	-0.0675	0.45
4347	3.915	-0.0675	0.45
4348	3.915	-0.066	0.45
4349	3.915	-0.0675	0.45
4350	3.9	-0.0675	0.45
4351	3.9	-0.0675	0.45
4352	3.885	-0.0675	0.45
4353	3.885	-0.0675	0.45
4354	3.885	-0.0675	0.45
4355	3.885	-0.0675	0.45
4356	3.885	-0.0675	0.45
4357	3.885	-0.066	0.45
4358	3.885	-0.0675	0.45
4359	3.87	-0.0675	0.45
4360	3.87	-0.0675	0.45
4361	3.87	-0.0675	0.45
4362	3.87	-0.0675	0.45
4363	3.855	-0.0675	0.45
4364	3.855	-0.0675	0.45
4365	3.855	-0.0675	0.45
4366	3.855	-0.066	0.45
4367	3.855	-0.0675	0.45
4368	3.855	-0.0675	0.45
4369	3.855	-0.0675	0.45
4370	3.855	-0.0675	0.45
4371	3.855	-0.066	0.45
4372	3.855	-0.0675	0.45
4373	3.87	-0.066	0.45
4374	3.84	-0.0675	0.45
4375	3.84	-0.0675	0.45
4376	3.84	-0.0675	0.45
4377	3.855	-0.0675	0.45
4378	3.855	-0.066	0.45
4379	3.87	-0.066	0.45
4380	3.87	-0.0675	0.45
4381	3.87	-0.066	0.45
4382	3.885	-0.0675	0.45
4383	3.885	-0.066	0.45
4384	3.885	-0.0675	0.45
4385	3.9	-0.0675	0.45
4386	3.9	-0.066	0.45
4387	3.915	-0.0675	0.45
4388	3.915	-0.066	0.45
4389	3.915	-0.066	0.45
4390	3.915	-0.066	0.45
4391	3.93	-0.066	0.45
4392	3.93	-0.066	0.45
4393	3.915	-0.069	0.45
4394	3.915	-0.0675	0.45
4395	3.915	-0.0675	0.45
4396	3.93	-0.0675	0.45
4397	3.93	-0.0675	0.45
4398	3.93	-0.0675	0.45
4399	3.93	-0.0675	0.45
4400	3.93	-0.0675	0.45
4401	3.93	-0.0675	0.45
4402	3.93	-0.0675	0.45
4403	3.93	-0.0675	0.45
4404	3.93	-0.066	0.45
4405	3.93	-0.0675	0.45
4406	3.93	-0.0675	0.45
4407	3.93	-0.0675	0.45
4408	3.93	-0.0675	0.45
4409	3.93	-0.069	0.45
4410	3.93	-0.0675	0.45
4411	3.93	-0.066	0.45
4412	3.93	-0.0675	0.45
4413	3.93	-0.0675	0.45
4414	3.93	-0.0675	0.45
4415	3.93	-0.0675	0.45
4416	3.93	-0.0675	0.45
4417	3.93	-0.0675	0.45
4418	3.93	-0.0675	0.45
4419	3.945	-0.0675	0.45
4420	3.945	-0.0675	0.45
4421	3.945	-0.066	0.45
4422	3.945	-0.0675	0.45
4423	3.945	-0.0675	0.45
4424	3.945	-0.0675	0.45
4425	3.945	-0.0675	0.45
4426	3.945	-0.0675	0.45
4427	3.945	-0.0675	0.45
4428	3.945	-0.0675	0.45
4429	3.945	-0.0675	0.45
4430	3.945	-0.0675	0.45
4431	3.945	-0.0675	0.45
4432	3.945	-0.0675	0.45
4433	3.93	-0.066	0.45
4434	3.93	-0.0675	0.45
4435	3.93	-0.0675	0.45
4436	3.93	-0.0675	0.45
4437	3.915	-0.069	0.45
4438	3.915	-0.0675	0.45
4439	3.915	-0.0675	0.45
4440	3.915	-0.0675	0.45
4441	3.9	-0.066	0.45
4442	3.9	-0.0675	0.45
4443	3.9	-0.0675	0.45
4444	3.885	-0.0675	0.45
4445	3.87	-0.0675	0.45
4446	3.87	-0.0675	0.45
4447	3.87	-0.0675	0.45
4448	3.855	-0.0675	0.45
4449	3.855	-0.0675	0.45
4450	3.84	-0.0675	0.45
4451	3.84	-0.0675	0.45
4452	3.825	-0.0675	0.45
4453	3.825	-0.0675	0.45
4454	3.825	-0.0675	0.45
4455	3.825	-0.066	0.45
4456	3.825	-0.0675	0.45
4457	3.825	-0.0675	0.45
4458	3.825	-0.0675	0.45
4459	3.825	-0.069	0.45
4460	3.825	-0.0675	0.45
4461	3.825	-0.0675	0.45
4462	3.825	-0.0675	0.45
4463	3.825	-0.0675	0.45
4464	3.825	-0.0675	0.45
4465	3.825	-0.0675	0.45
4466	3.825	-0.0675	0.45
4467	3.825	-0.0675	0.45
4468	3.825	-0.069	0.45
4469	3.825	-0.0675	0.45
4470	3.825	-0.0675	0.45
4471	3.825	-0.0675	0.45
4472	3.825	-0.066	0.45
4473	3.825	-0.0675	0.45
4474	3.825	-0.0675	0.45
4475	3.825	-0.066	0.45
4476	3.825	-0.0675	0.45
4477	3.825	-0.0675	0.45
4478	3.825	-0.066	0.45
4479	3.825	-0.0675	0.45
4480	3.825	-0.0675	0.45
