# Spalte1: Wellenlaenge [nm]
# Spalte2: Intensitaet
335	0.014690871
336	0.015383114
337	0.016053641
338	0.016656308
339	0.017416032
340	0.018256874
341	0.019215794
342	0.020428292
343	0.021455672
344	0.022500948
345	0.024238214
346	0.025652495
347	0.027096319
348	0.028772606
349	0.030624762
350	0.032462557
351	0.034494118
352	0.036460722
353	0.038592370
354	0.040517216
355	0.043162838
356	0.045973598
357	0.049403059
358	0.053100301
359	0.056554950
360	0.059465481
361	0.062271159
362	0.064906681
363	0.067547253
364	0.070198556
365	0.072823346
366	0.075204879
367	0.077049524
368	0.078890854
369	0.080742789
370	0.082773309
371	0.084436055
372	0.086024406
373	0.087172199
374	0.088652005
375	0.090022350
376	0.091523241
377	0.092840686
378	0.094496646
379	0.095489338
380	0.097488420
381	0.099079202
382	0.100535147
383	0.101855117
384	0.103804582
385	0.105667691
386	0.107435542
387	0.109265509
388	0.111216869
389	0.113479283
390	0.115823950
391	0.117927317
392	0.119923749
393	0.121933184
394	0.124261281
395	0.127340327
396	0.130049076
397	0.132826063
398	0.136133817
399	0.138997224
400	0.142825706
401	0.146431478
402	0.150139926
403	0.154239566
404	0.158958886
405	0.163580108
406	0.167795680
407	0.172541323
408	0.177459680
409	0.182921365
410	0.188791350
411	0.195101452
412	0.201007419
413	0.207509551
414	0.214986226
415	0.221683418
416	0.229107068
417	0.236904550
418	0.244893306
419	0.253040382
420	0.261319076
421	0.269995466
422	0.278869378
423	0.287714126
424	0.296591257
425	0.305602469
426	0.314583632
427	0.323416575
428	0.332335560
429	0.341135235
430	0.350162923
431	0.358464153
432	0.366566536
433	0.374195819
434	0.381437696
435	0.388635984
436	0.395805108
437	0.402651436
438	0.409090789
439	0.415406193
440	0.420709304
441	0.425968985
442	0.430751936
443	0.435169007
444	0.439016048
445	0.442563492
446	0.445654912
447	0.448438780
448	0.450915097
449	0.452659655
450	0.454690553
451	0.456641912
452	0.458617133
453	0.460303362
454	0.461029819
455	0.461682040
456	0.461774835
457	0.462039966
458	0.461939216
459	0.461446263
460	0.461021865
461	0.461117312
462	0.461241923
463	0.461056332
464	0.460801807
465	0.460801807
466	0.461000907
467	0.461671435
468	0.462466826
469	0.462808844
470	0.463397433
471	0.464296225
472	0.465505219
473	0.467411506
474	0.469255708
475	0.470569208
476	0.471788808
477	0.473604951
478	0.475794927
479	0.478136028
480	0.480389636
481	0.483152294
482	0.486068727
483	0.488985161
484	0.492421250
485	0.495989904
486	0.499171468
487	0.502353032
488	0.506155000
489	0.509911897
490	0.513811964
491	0.517523789
492	0.521235613
493	0.525371646
494	0.530165203
495	0.534956108
496	0.539325455
497	0.543660336
498	0.548989456
499	0.553287218
500	0.557706941
501	0.562611852
502	0.568179589
503	0.574182139
504	0.579267339
505	0.584384354
506	0.589186964
507	0.593976769
508	0.599000989
509	0.604513048
510	0.609815655
511	0.614826618
512	0.619408070
513	0.623679320
514	0.628056751
515	0.632972137
516	0.637702062
517	0.642408126
518	0.647204333
519	0.652448611
520	0.658167472
521	0.664097985
522	0.669385136
523	0.674422612
524	0.679460089
525	0.684985405
526	0.691130253
527	0.698101402
528	0.704960323
529	0.711758265
530	0.718959560
531	0.726324525
532	0.733308058
533	0.740683983
534	0.747873057
535	0.755072606
536	0.762787898
537	0.770536364
538	0.778658600
539	0.786289050
540	0.794242960
541	0.802463585
542	0.810166687
543	0.817414122
544	0.824775368
545	0.831456653
546	0.837615630
547	0.844373802
548	0.851951227
549	0.859455967
550	0.866549302
551	0.873707821
552	0.879752792
553	0.885943586
554	0.892083616
555	0.899003905
556	0.905448124
557	0.911449123
558	0.915691208
559	0.918946814
560	0.920768454
561	0.918406143
562	0.909688657
563	0.898937623
564	0.892253687
565	0.896742408
566	0.914779160
567	0.941526930
568	0.968619175
569	0.989773341
570	1.000000000
571	0.999968184
572	0.995466271
573	0.989596221
574	0.982572984
575	0.975735273
576	0.968615553
577	0.962335586
578	0.955691161
579	0.948339356
580	0.940793747
581	0.933148617
582	0.925331347
583	0.917052167
584	0.908811076
585	0.900406445
586	0.891520052
587	0.883061231
588	0.875333070
589	0.867840487
590	0.861076883
591	0.855026738
592	0.849725102
593	0.845466171
594	0.841749335
595	0.838665546
596	0.836221044
597	0.834390805
598	0.832795561
599	0.830966485
600	0.829600740
601	0.828926921
602	0.828390194
603	0.827638776
604	0.827590470
605	0.827418718
606	0.826565321
607	0.825526754
608	0.823801176
609	0.822062180
610	0.819592070
611	0.817604660
612	0.815642922
613	0.813581566
614	0.810468871
615	0.807516872
616	0.804741992
617	0.802302566
618	0.799452545
619	0.797037272
620	0.794346361
621	0.791017876
622	0.787352029
623	0.784260480
624	0.780889833
625	0.777857906
626	0.775337390
627	0.772621550
628	0.769758110
629	0.766937608
630	0.764193089
631	0.761546183
632	0.759608598
633	0.757676380
634	0.755910547
635	0.754235958
636	0.752561369
637	0.750581298
638	0.748476875
639	0.746142111
640	0.743552402
641	0.740984162
642	0.738160977
643	0.735718868
644	0.733427043
645	0.730571654
646	0.727815560
647	0.724742796
648	0.721015225
649	0.717207146
650	0.714824077
651	0.712489313
652	0.709378979
653	0.705699714
654	0.702916783
655	0.700568601
656	0.698421692
657	0.696111081
658	0.693886877
659	0.692705547
660	0.691186609
661	0.689565693
662	0.688250711
663	0.688105795
664	0.688095060
665	0.688790221
666	0.689329533
667	0.689230238
668	0.689863576
669	0.690939714
670	0.691618376
671	0.692238594
672	0.693784369
673	0.696468005
674	0.698823244
675	0.700383430
676	0.701937256
677	0.704455103
678	0.707336732
679	0.709902288
680	0.711915015
681	0.713761357
682	0.715505720
683	0.717430384
684	0.718715349
685	0.719144731
686	0.719772702
687	0.721034011
688	0.722798717
689	0.723910869
690	0.724673287
691	0.725378818
692	0.726774309
693	0.727927974
694	0.728832658
695	0.730509930
696	0.732189887
697	0.733241971
698	0.734049646
699	0.734862788
700	0.735591975
701	0.736260963
702	0.737420294
703	0.738327363
704	0.739346548
705	0.740372293
706	0.742196437
707	0.743729522
708	0.745524875
709	0.746958931
710	0.748173326
711	0.748981398
712	0.749668409
713	0.751754025
714	0.753173238
715	0.753816052
716	0.754139347
717	0.755973165
718	0.757496576
719	0.758100394
720	0.758703517
721	0.758171030
722	0.756486634
723	0.754582147
724	0.753411253
725	0.752311791
726	0.750841191
727	0.748483037
728	0.745025719
729	0.742305108
730	0.740172445
731	0.738085835
732	0.735801166
733	0.734024400
734	0.731618272
735	0.728688669
736	0.725678491
737	0.722687330
738	0.719842476
739	0.716262174
740	0.712931417
