# Spalte1: Zeit [s]
# Spalte2: Zellspannung [mV]
# Spalte3: Spulenstrom [A]
# Spalte4: Magn. Flussdichte [mT]
# Spalte5: Widerstand [kOhm]
0	-2.41	0.0	2.25	100.00
1	-2.4	0.0	2.25	100.00
2	-2.39	0.0	2.25	100.00
3	-2.38	0.0	2.25	100.00
4	-2.37	0.0	2.25	100.00
5	-2.365	0.0	2.25	100.00
6	-2.355	0.0	2.1	100.00
7	-2.35	0.0	2.25	100.00
8	-2.345	0.0	2.1	100.00
9	-2.34	0.0	2.1	100.00
10	-2.33	0.0	2.25	100.00
11	-2.325	0.0	2.25	100.00
12	-2.32	0.0	2.25	100.00
13	-2.31	0.0	2.1	100.00
14	-2.305	0.0	2.1	100.00
15	-2.305	0.0	2.1	100.00
16	-2.3	0.0	2.1	100.00
17	-2.29	0.0	2.1	100.00
18	-2.29	0.0	2.1	100.00
19	-2.285	0.0	2.1	100.00
20	-2.28	0.0	2.1	100.00
21	-2.28	0.0	2.1	100.00
22	-2.275	0.0	2.25	100.00
23	-2.265	0.0	2.1	100.00
24	-2.265	0.0	2.1	100.00
25	-2.26	0.0	2.1	100.00
26	-2.26	0.0	2.1	100.00
27	-2.26	0.0	2.1	100.00
28	-2.255	0.0	2.1	100.00
29	-2.255	0.0	2.1	100.00
30	-2.25	0.0	2.1	100.00
31	-2.25	0.0	2.1	100.00
32	-2.245	0.0	2.1	100.00
33	-2.24	0.0	2.1	100.00
34	-2.24	0.0	2.1	100.00
35	-2.23	0.0	2.1	100.00
36	-2.23	0.0	2.1	100.00
37	-2.23	0.0	2.1	100.00
38	-2.23	0.0	2.1	100.00
39	-2.225	0.0	2.25	100.00
40	-2.225	0.0	2.25	100.00
41	-2.22	0.0	2.1	100.00
42	-2.215	0.0	2.1	100.00
43	-2.21	0.0	2.25	100.00
44	-2.21	0.0	2.1	100.00
45	-2.205	-0.0015	2.25	100.00
46	-2.2	0.0	2.1	100.00
47	-2.2	0.0	2.1	100.00
48	-2.2	0.0	2.1	100.00
49	-2.195	0.0	2.1	100.00
50	-2.19	0.0	2.1	100.00
51	-2.19	0.0	2.1	100.00
52	-2.19	0.0	2.1	100.00
53	-2.185	0.0	2.1	100.00
54	-2.185	0.0	2.1	100.00
55	-2.18	0.0	2.1	100.00
56	-2.175	0.0	2.1	100.00
57	-2.18	0.0	2.1	100.00
58	-2.175	0.0	2.1	100.00
59	-2.175	0.0	2.1	100.00
60	-2.175	0.0	2.1	100.00
61	-2.17	0.0	2.1	100.00
62	-2.165	0.0	2.1	100.00
63	-2.165	0.0	2.1	100.00
64	-2.16	0.0	2.1	100.00
65	-2.16	0.0	2.1	100.00
66	-2.16	0.0	2.1	100.00
67	-1.875	0.1065	17.25	100.00
68	-1.14	0.336	51.3	100.00
69	-0.455	0.5595	82.65	100.00
70	-0.05	0.741	101.85	100.00
71	0.275	0.9165	117.3	100.00
72	0.57	1.086	130.8	100.00
73	0.685	1.17	136.8	100.00
74	0.945	1.356	149.1	100.00
75	1.22	1.566	161.55	100.00
76	1.28	1.623	164.7	100.00
77	1.275	1.6215	164.7	100.00
78	1.27	1.6245	164.7	100.00
79	1.265	1.623	164.7	100.00
80	1.26	1.623	164.7	100.00
81	1.265	1.6215	164.7	100.00
82	1.255	1.6215	164.7	100.00
83	1.25	1.6215	164.7	100.00
84	1.245	1.62	164.7	100.00
85	1.24	1.6215	164.7	100.00
86	1.24	1.623	164.7	100.00
87	1.24	1.6215	164.7	100.00
88	1.235	1.6215	164.55	100.00
89	1.23	1.62	164.55	100.00
90	1.23	1.6215	164.55	100.00
91	1.23	1.6215	164.55	100.00
92	1.225	1.62	164.55	100.00
93	1.225	1.62	164.55	100.00
94	0.95	1.3155	147.0	100.00
95	-1.53	0.2055	32.55	100.00
96	-2.225	0.0015	2.25	100.00
97	-2.225	0.0	2.25	100.00
98	-2.215	0.0	2.1	100.00
99	-2.21	0.0	2.1	100.00
100	-2.2	0.0	2.1	100.00
101	-2.195	0.0	2.1	100.00
102	-2.19	0.0	2.1	100.00
103	-2.185	0.0	2.1	100.00
104	-2.175	0.0	2.1	100.00
105	-2.17	0.0	2.1	100.00
106	-2.17	0.0	2.1	100.00
107	-2.165	0.0	2.1	100.00
108	-2.16	0.0	2.1	100.00
109	-2.155	0.0	2.1	100.00
110	-2.15	0.0	2.1	100.00
111	-2.145	0.0	2.1	100.00
112	-2.145	0.0	2.1	100.00
113	-2.14	0.0	2.1	100.00
114	-2.14	0.0	2.1	100.00
115	-2.135	0.0	2.1	100.00
116	-2.13	0.0	2.1	100.00
117	-2.13	0.0	2.1	100.00
118	-2.125	0.0	2.1	100.00
119	-2.12	0.0	2.1	100.00
120	-2.12	0.0	2.1	100.00
121	-2.12	0.0	2.1	100.00
122	-2.115	0.0	2.1	100.00
123	-2.11	0.0	2.1	100.00
124	-2.11	0.0	2.1	100.00
125	-2.105	0.0	2.1	100.00
126	-2.105	0.0	2.1	100.00
127	-2.105	0.0	2.1	100.00
128	-2.1	0.0	2.1	100.00
129	-2.1	0.0	2.1	100.00
130	-2.1	0.0	2.1	100.00
131	-2.095	0.0	2.1	100.00
132	-2.095	0.0	2.1	100.00
133	-2.095	0.0	2.1	100.00
134	-2.09	0.0	2.1	100.00
135	-2.085	0.0	2.1	100.00
136	-2.085	0.0	2.1	100.00
137	-2.085	0.0	2.1	100.00
138	-2.085	0.0	2.1	100.00
139	-2.085	0.0	2.1	100.00
140	-2.08	0.0	2.1	100.00
141	-2.08	0.0	2.1	100.00
142	-2.075	0.0	2.1	100.00
143	-2.075	0.0	2.1	100.00
144	-2.075	0.0	2.1	100.00
145	-2.075	0.0	2.1	100.00
146	-2.075	0.0	2.1	100.00
147	-2.075	0.0	2.1	100.00
148	-2.075	0.0	2.1	100.00
149	-2.07	0.0	2.1	100.00
150	-2.07	0.0	2.1	100.00
151	-2.07	0.0	2.1	100.00
152	-2.065	0.0	2.1	100.00
153	-2.065	0.0	2.1	100.00
154	-2.06	0.0	2.1	100.00
155	-2.06	0.0	2.1	100.00
156	-2.06	0.0	2.1	100.00
157	-2.06	0.0	2.1	100.00
158	-2.06	0.0	2.1	100.00
159	-2.06	0.0	2.1	100.00
160	-2.055	0.0	2.1	100.00
161	-2.055	0.0	2.1	100.00
162	-2.055	0.0	2.1	100.00
163	-2.055	0.0	2.1	100.00
164	-2.055	0.0	2.1	100.00
165	-2.05	0.0	2.1	100.00
166	-2.05	0.0	2.1	100.00
167	-2.05	0.0	2.1	100.00
168	-2.045	0.0	2.1	100.00
169	-2.045	0.0	2.1	100.00
170	-2.045	0.0	2.1	100.00
171	-2.045	0.0	2.1	100.00
172	-2.04	0.0	2.1	100.00
173	-2.04	0.0	2.1	100.00
174	-2.04	0.0	2.1	100.00
175	-2.04	0.0	2.1	100.00
176	-2.04	0.0	2.1	100.00
177	-2.035	0.0	2.1	100.00
178	-2.04	0.0	2.1	100.00
179	-2.04	0.0	2.1	100.00
180	-2.04	0.0	2.1	100.00
181	-2.035	0.0	2.1	100.00
182	-2.035	0.0	2.1	100.00
183	-2.035	0.0	2.1	100.00
184	-2.035	0.0	2.1	100.00
185	-2.035	0.0	2.1	100.00
186	-2.035	0.0	2.1	100.00
187	-2.035	0.0	2.1	100.00
188	-2.035	0.0	2.1	100.00
189	-2.03	0.0	2.1	100.00
190	-2.03	0.0	2.1	100.00
191	-2.035	0.0	2.1	100.00
192	-2.035	0.0	2.1	100.00
193	-2.03	0.0	2.1	100.00
194	-2.03	0.0	2.1	100.00
195	-2.025	0.0	2.1	100.00
196	-2.025	-0.0015	2.1	100.00
197	-2.025	0.0	2.1	100.00
198	-2.02	0.0	2.1	50.00
199	-2.01	0.0	2.1	50.00
200	-2.0	0.0	2.1	50.00
201	-1.985	0.0	2.1	50.00
202	-1.98	0.0	2.1	50.00
203	-1.975	0.0	2.1	50.00
204	-1.97	0.0	2.1	50.00
205	-1.965	0.0	2.1	50.00
206	-1.96	0.0	2.1	50.00
207	-1.955	0.0	2.1	50.00
208	-1.95	0.0	2.1	50.00
209	-1.95	0.0	2.1	50.00
210	-1.945	0.0	2.1	50.00
211	-1.935	0.0	2.1	50.00
212	-1.935	0.0	2.1	50.00
213	-1.93	-0.0015	2.1	50.00
214	-1.925	0.0	2.1	50.00
215	-1.92	0.0	2.1	50.00
216	-1.91	0.0	2.1	50.00
217	-1.9	0.0	2.1	50.00
218	-1.9	0.0	2.1	50.00
219	-1.9	0.0	2.1	50.00
220	-1.9	0.0	2.1	50.00
221	-1.895	0.0	2.1	50.00
222	-1.895	0.0	2.1	50.00
223	-1.89	0.0	2.1	50.00
224	-1.89	0.0	2.1	50.00
225	-1.89	0.0	2.1	50.00
226	-1.885	0.0	2.1	50.00
227	-1.88	0.0	2.1	50.00
228	-1.88	0.0	2.1	50.00
229	-1.875	0.0	2.1	50.00
230	-1.075	0.03	6.3	50.00
231	-0.19	0.294	44.4	50.00
232	0.735	0.645	91.05	50.00
233	1.27	1.092	130.35	50.00
234	1.55	1.464	155.25	50.00
235	1.525	1.638	165.6	50.00
236	1.51	1.6395	165.6	50.00
237	1.495	1.6395	165.6	50.00
238	1.475	1.6395	165.6	50.00
239	1.46	1.6395	165.6	50.00
240	1.455	1.6395	165.6	50.00
241	1.44	1.6395	165.6	50.00
242	1.435	1.6395	165.6	50.00
243	1.42	1.6395	165.6	50.00
244	1.41	1.641	165.6	50.00
245	1.4	1.6395	165.6	50.00
246	1.39	1.6395	165.6	50.00
247	1.39	1.6395	165.6	50.00
248	1.38	1.641	165.6	50.00
249	1.37	1.638	165.6	50.00
250	1.365	1.6365	165.6	50.00
251	1.355	1.638	165.6	50.00
252	1.345	1.638	165.6	50.00
253	1.345	1.6395	165.6	50.00
254	1.335	1.6395	165.6	50.00
255	1.33	1.638	165.6	50.00
256	1.325	1.638	165.6	50.00
257	1.315	1.6365	165.45	50.00
258	1.305	1.6365	165.45	50.00
259	1.3	1.635	165.45	50.00
260	1.3	1.6365	165.45	50.00
261	1.295	1.635	165.45	50.00
262	1.295	1.6365	165.45	50.00
263	1.29	1.635	165.45	50.00
264	1.285	1.6335	165.45	50.00
265	1.28	1.635	165.45	50.00
266	1.275	1.635	165.45	50.00
267	1.265	1.635	165.45	50.00
268	1.265	1.6365	165.45	50.00
269	1.26	1.6335	165.45	50.00
270	1.26	1.6335	165.45	50.00
271	1.25	1.632	165.45	50.00
272	1.245	1.6335	165.3	50.00
273	1.245	1.6335	165.3	50.00
274	1.245	1.6335	165.45	50.00
275	1.235	1.635	165.3	50.00
276	1.235	1.6305	165.3	50.00
277	1.235	1.6335	165.3	50.00
278	1.23	1.6335	165.3	50.00
279	1.23	1.6305	165.3	50.00
280	1.23	1.632	165.3	50.00
281	1.225	1.6305	165.3	50.00
282	1.225	1.6305	165.15	50.00
283	1.215	1.629	165.15	50.00
284	1.215	1.629	165.15	50.00
285	1.21	1.629	165.15	50.00
286	1.21	1.629	165.15	50.00
287	1.215	1.6305	165.15	50.00
288	1.21	1.629	165.15	50.00
289	1.205	1.629	165.15	50.00
290	1.205	1.6305	165.15	50.00
291	1.2	1.6275	165.15	50.00
292	1.195	1.629	165.15	50.00
293	1.195	1.6305	165.15	50.00
294	1.195	1.6275	165.15	50.00
295	1.2	1.629	165.15	50.00
296	1.195	1.629	165.15	50.00
297	1.195	1.6275	165.15	50.00
298	1.19	1.6275	165.15	50.00
299	1.19	1.6275	165.15	50.00
300	1.185	1.6275	165.0	50.00
301	1.18	1.6275	165.0	50.00
302	1.185	1.6275	165.0	50.00
303	1.18	1.626	165.0	50.00
304	1.18	1.6245	165.0	50.00
305	1.185	1.626	165.0	50.00
306	1.18	1.6275	165.0	50.00
307	1.175	1.626	165.0	50.00
308	1.18	1.6245	165.0	50.00
309	1.175	1.6275	165.0	50.00
310	1.175	1.6245	165.0	50.00
311	1.17	1.6245	164.85	50.00
312	1.17	1.626	164.85	50.00
313	1.17	1.623	164.85	50.00
314	1.175	1.623	164.85	50.00
315	1.165	1.623	164.85	50.00
316	1.165	1.623	164.85	50.00
317	1.165	1.623	164.85	50.00
318	1.165	1.62	164.85	50.00
319	1.16	1.6245	164.85	50.00
320	1.165	1.623	164.85	50.00
321	1.16	1.623	164.85	50.00
322	1.16	1.6215	164.85	50.00
323	1.16	1.623	164.85	50.00
324	0.77	1.587	163.05	50.00
325	-0.535	1.1265	135.3	50.00
326	-2.32	0.384	59.55	50.00
327	-2.25	0.003	2.25	50.00
328	-2.23	0.0	2.25	50.00
329	-2.21	0.0	2.25	50.00
330	-2.19	0.0	2.25	50.00
331	-2.17	0.0	2.25	50.00
332	-2.16	0.0	2.25	50.00
333	-2.145	0.0	2.25	50.00
334	-2.13	0.0	2.25	50.00
335	-2.12	0.0	2.25	50.00
336	-2.11	0.0	2.1	50.00
337	-2.095	0.0	2.1	50.00
338	-2.085	0.0	2.1	50.00
339	-2.075	0.0	2.1	50.00
340	-2.07	0.0	2.1	50.00
341	-2.06	0.0	2.1	50.00
342	-2.055	0.0	2.1	50.00
343	-2.045	0.0	2.25	50.00
344	-2.035	0.0	2.1	50.00
345	-2.025	0.0	2.25	50.00
346	-2.02	0.0	2.25	50.00
347	-2.015	0.0	2.25	50.00
348	-2.005	0.0	2.25	50.00
349	-2.0	0.0	2.25	50.00
350	-1.995	0.0	2.25	50.00
351	-1.99	0.0	2.25	50.00
352	-1.985	0.0	2.25	50.00
353	-1.98	0.0	2.25	50.00
354	-1.975	0.0	2.25	50.00
355	-1.97	0.0	2.25	50.00
356	-1.965	0.0	2.25	50.00
357	-1.96	0.0	2.25	50.00
358	-1.955	0.0	2.25	50.00
359	-1.955	0.0	2.25	50.00
360	-1.945	0.0	2.25	50.00
361	-1.94	0.0	2.25	50.00
362	-1.94	0.0	2.25	50.00
363	-1.93	0.0	2.1	50.00
364	-1.925	0.0	2.25	50.00
365	-1.925	0.0	2.1	50.00
366	-1.92	-0.0015	2.1	50.00
367	-1.92	0.0	2.1	50.00
368	-1.915	0.0	2.1	50.00
369	-1.91	0.0	2.1	50.00
370	-1.91	0.0	2.1	50.00
371	-1.905	-0.0015	2.1	50.00
372	-1.9	0.0	2.1	50.00
373	-1.9	0.0	2.1	50.00
374	-1.895	0.0	2.1	50.00
375	-1.895	0.0	2.1	50.00
376	-1.89	0.0	2.25	50.00
377	-1.89	0.0	2.25	50.00
378	-1.885	0.0	2.1	50.00
379	-1.885	0.0	2.25	50.00
380	-1.88	0.0	2.25	50.00
381	-1.875	-0.0015	2.25	50.00
382	-1.88	0.0	2.25	50.00
383	-1.875	0.0	2.1	50.00
384	-1.875	0.0	2.25	50.00
385	-1.875	0.0	2.25	50.00
386	-1.875	0.0	2.25	50.00
387	-1.875	0.0	2.25	50.00
388	-1.875	0.0	2.25	50.00
389	-1.875	0.0	2.25	50.00
390	-1.875	0.0	2.1	50.00
391	-1.875	0.0	2.1	50.00
392	-1.875	0.0	2.1	50.00
393	-1.87	0.0	2.1	50.00
394	-1.87	0.0	2.25	50.00
395	-1.87	0.0	2.25	50.00
396	-1.865	0.0	2.25	50.00
397	-1.865	0.0	2.25	50.00
398	-1.865	0.0	2.25	50.00
399	-1.86	0.0	2.25	50.00
400	-1.855	0.0	2.25	50.00
401	-1.855	0.0	2.25	50.00
402	-1.85	-0.0015	2.25	50.00
403	-1.845	0.0	2.25	50.00
404	-1.84	0.0	2.25	50.00
405	-1.84	0.0	2.25	50.00
406	-1.835	0.0	2.1	50.00
407	-1.83	0.0	2.25	50.00
408	-1.83	0.0	2.25	50.00
409	-1.83	0.0	2.25	50.00
410	-1.825	0.0	2.25	50.00
411	-1.825	0.0	2.25	50.00
412	-1.825	0.0	2.25	50.00
413	-1.82	0.0	2.25	50.00
414	-1.82	0.0	2.25	50.00
415	-1.82	0.0	2.25	50.00
416	-1.815	0.0	2.25	50.00
417	-1.815	0.0	2.25	50.00
418	-1.81	0.0	2.25	50.00
419	-1.81	0.0	2.25	50.00
420	-1.81	0.0	2.25	50.00
421	-1.81	0.0	2.1	50.00
422	-1.81	0.0	2.25	50.00
423	-1.805	0.0	2.25	50.00
424	-1.8	0.0	2.25	50.00
425	-1.8	0.0	2.25	50.00
426	-1.795	0.0	2.25	50.00
427	-1.795	0.0	2.1	50.00
428	-1.795	0.0	2.25	50.00
429	-1.79	0.0	2.25	50.00
430	-1.785	0.0	2.25	50.00
431	-1.785	0.0	2.1	50.00
432	-1.78	0.0	2.25	50.00
433	-1.78	0.0	2.25	50.00
434	-1.78	0.0	2.25	50.00
435	-1.78	0.0	2.1	50.00
436	-1.775	0.0	2.1	50.00
437	-1.775	0.0	2.1	50.00
438	-1.77	0.0	2.25	50.00
439	-1.77	0.0	2.25	50.00
440	-1.77	0.0	2.25	50.00
441	-1.77	0.0	2.25	50.00
442	-1.765	0.0	2.25	50.00
443	-1.765	0.0	2.25	50.00
444	-1.765	0.0	2.25	50.00
445	-1.76	0.0	2.25	50.00
446	-1.76	0.0	2.25	50.00
447	-1.76	0.0	2.25	50.00
448	-1.755	0.0	2.1	50.00
449	-1.75	0.0	2.25	50.00
450	-1.75	0.0	2.25	50.00
451	-1.75	0.0	2.1	50.00
452	-1.75	0.0	2.25	50.00
453	-1.75	0.0	2.25	50.00
454	-1.75	0.0	2.25	50.00
455	-1.745	0.0	2.25	50.00
456	-1.745	0.0	2.1	50.00
457	-1.74	0.0	2.25	50.00
458	-1.74	0.0	2.1	50.00
459	-1.735	0.0	2.25	50.00
460	-1.735	0.0	2.25	50.00
461	-1.735	0.0	2.25	50.00
462	-1.73	0.0	2.25	50.00
463	-1.73	-0.0015	2.25	50.00
464	-1.725	0.0	2.25	50.00
465	-1.725	0.0	2.25	50.00
466	-1.72	0.0	2.25	50.00
467	-1.715	0.0	2.25	50.00
468	-1.715	0.0	2.25	50.00
469	-1.715	0.0	2.25	50.00
470	-1.71	0.0	2.25	50.00
471	-1.71	0.0	2.25	50.00
472	-1.705	0.0	2.25	50.00
473	-1.7	0.0	2.25	50.00
474	-1.695	0.0	2.25	50.00
475	-1.695	-0.0015	2.25	50.00
476	-1.695	0.0	2.25	50.00
477	-1.69	0.0	2.1	50.00
478	-1.695	0.0	2.1	50.00
479	-1.69	0.0	2.25	50.00
480	-1.69	0.0	2.25	50.00
481	-1.685	0.0	2.1	50.00
482	-1.68	0.0	2.1	50.00
483	-1.68	0.0	2.25	50.00
484	-1.675	0.0	2.1	50.00
485	-1.675	0.0	2.25	50.00
486	-1.675	0.0	2.1	50.00
487	-1.675	0.0	2.1	50.00
488	-1.67	0.0	2.25	50.00
489	-1.67	0.0	2.1	50.00
490	-1.665	0.0	2.1	50.00
491	-1.665	0.0	2.25	50.00
492	-1.665	0.0	2.25	50.00
493	-1.665	0.0	2.25	50.00
494	-1.665	0.0	2.1	50.00
495	-1.665	0.0	2.25	50.00
496	-1.665	0.0	2.1	50.00
497	-1.665	0.0	2.1	50.00
498	-1.665	0.0	2.1	50.00
499	-1.66	0.0	2.1	50.00
500	-1.66	0.0	2.1	50.00
501	-1.66	0.0	2.1	50.00
502	-1.66	0.0	2.1	50.00
503	-1.66	0.0	2.25	50.00
504	-1.66	0.0	2.1	50.00
505	-1.66	0.0	2.1	50.00
506	-1.66	0.0	2.1	50.00
507	-1.66	0.0	2.1	50.00
508	-1.655	0.0	2.1	50.00
509	-1.655	0.0	2.1	50.00
510	-1.655	0.0	2.25	50.00
511	-1.66	0.0	2.25	50.00
512	-1.655	0.0	2.1	50.00
513	-1.655	0.0	2.25	50.00
514	-1.65	-0.0015	2.1	50.00
515	-1.655	0.0	2.25	50.00
516	-1.655	0.0	2.25	50.00
517	-1.655	0.0	2.25	50.00
518	-1.655	0.0	2.25	50.00
519	-1.655	0.0	2.1	50.00
520	-1.65	0.0	2.25	50.00
521	-1.655	0.0	2.25	50.00
522	-1.655	0.0	2.25	50.00
523	-1.65	0.0	2.25	50.00
524	-1.65	0.0	2.25	50.00
525	-1.65	0.0	2.25	50.00
526	-1.65	0.0	2.25	50.00
527	-1.65	0.0	2.25	50.00
528	-1.65	0.0	2.25	50.00
529	-1.65	0.0	2.25	50.00
530	-1.65	0.0	2.1	50.00
531	-1.65	0.0	2.1	50.00
532	-1.65	0.0	2.25	50.00
533	-1.65	0.0	2.1	50.00
534	-1.645	0.0	2.1	50.00
535	-1.645	0.0	2.1	50.00
536	-1.645	0.0	2.1	50.00
537	-1.645	0.0	2.1	50.00
538	-1.64	0.0	2.1	50.00
539	-1.645	0.0	2.1	50.00
540	-1.645	0.0	2.1	50.00
541	-1.64	0.0	2.1	50.00
542	-1.64	0.0	2.1	50.00
543	-1.64	0.0	2.1	50.00
544	-1.64	0.0	2.1	50.00
545	-1.64	0.0	2.1	50.00
546	-1.635	0.0	2.1	50.00
547	-1.18	0.0	2.1	33.33
548	-0.045	0.0	2.1	33.33
549	-0.33	0.0	2.1	33.33
550	-0.54	0.0	2.1	33.33
551	-0.675	0.0	2.1	33.33
552	-0.775	0.0	2.1	33.33
553	-0.845	0.0	2.1	33.33
554	-0.91	0.0	2.1	33.33
555	-0.96	0.0	2.1	33.33
556	-1.0	0.0	2.1	33.33
557	-1.04	0.0	2.1	33.33
558	-1.065	0.0	2.1	33.33
559	-1.095	0.0	2.1	33.33
560	-1.125	-0.0015	2.1	33.33
561	-1.15	0.0	2.1	33.33
562	-1.165	0.0	2.1	33.33
563	-1.185	0.0	2.1	33.33
564	-1.2	0.0	2.1	33.33
565	-1.205	0.0	2.1	33.33
566	-1.22	0.0	2.1	33.33
567	-1.23	0.0	2.1	33.33
568	-1.245	-0.0015	2.1	33.33
569	-1.255	0.0	2.1	33.33
570	-1.265	0.0	2.1	33.33
571	-1.275	0.0	2.1	33.33
572	-1.28	0.0	2.1	33.33
573	-1.29	0.0	2.1	33.33
574	-1.295	0.0	2.1	33.33
575	-1.3	0.0	2.1	33.33
576	-1.305	0.0	2.1	33.33
577	-1.315	0.0	2.1	33.33
578	-1.32	0.0	2.1	33.33
579	-1.325	0.0	2.1	33.33
580	-1.325	0.0	2.1	33.33
581	-1.33	0.0	2.1	33.33
582	-1.335	0.0	2.1	33.33
583	-1.335	0.0	2.1	33.33
584	-1.345	0.0	2.1	33.33
585	-1.345	0.0	2.1	33.33
586	-1.345	0.0	2.1	33.33
587	-1.35	0.0	2.1	33.33
588	-1.355	0.0	2.1	33.33
589	-1.355	0.0	2.1	33.33
590	-1.36	0.0	2.1	33.33
591	-1.36	0.0	2.1	33.33
592	-1.365	0.0	2.1	33.33
593	-1.365	0.0	2.1	33.33
594	-1.37	0.0	2.1	33.33
595	-1.37	0.0	2.1	33.33
596	-1.37	0.0	2.1	33.33
597	-1.37	0.0	2.1	33.33
598	-1.375	0.0	2.1	33.33
599	-1.38	0.0	2.25	33.33
600	-1.38	0.0	2.1	33.33
601	-1.38	0.0	2.25	33.33
602	-1.38	0.0	2.1	33.33
603	-1.385	0.0	2.1	33.33
604	-1.385	0.0	2.25	33.33
605	-1.385	0.0	2.1	33.33
606	-1.385	0.0	2.1	33.33
607	-1.39	0.0	2.1	33.33
608	-1.385	0.0	2.1	33.33
609	-1.385	-0.0015	2.25	33.33
610	-1.385	0.0	2.1	33.33
611	-1.385	0.0	2.1	33.33
612	-1.385	0.0	2.1	33.33
613	-1.385	0.0	2.1	33.33
614	-1.385	0.0	2.1	33.33
615	-1.385	0.0	2.1	33.33
616	-1.39	0.0	2.1	33.33
617	-1.385	0.0	2.1	33.33
618	-1.39	0.0	2.1	33.33
619	-1.395	0.0	2.1	33.33
620	-1.39	0.0	2.1	33.33
621	-1.39	0.0	2.1	33.33
622	-1.39	0.0	2.1	33.33
623	-1.39	0.0	2.1	33.33
624	-1.39	0.0	2.25	33.33
625	-1.39	0.0	2.1	33.33
626	-1.39	0.0	2.25	33.33
627	-1.395	0.0	2.25	33.33
628	-1.395	0.0	2.1	33.33
629	-1.395	0.0	2.25	33.33
630	-1.395	0.0	2.1	33.33
631	-1.395	0.0	2.1	33.33
632	-1.395	0.0	2.1	33.33
633	-1.395	0.0	2.1	33.33
634	-1.395	0.0	2.1	33.33
635	-1.4	0.0	2.1	33.33
636	-1.395	0.0	2.1	33.33
637	-1.4	0.0	2.1	33.33
638	-1.4	0.0	2.1	33.33
639	-1.4	0.0	2.1	33.33
640	-1.395	0.0	2.1	33.33
641	-1.395	0.0	2.1	33.33
642	-1.395	0.0	2.1	33.33
643	-1.4	0.0	2.1	33.33
644	-1.4	0.0	2.1	33.33
645	-1.4	0.0	2.1	33.33
646	-1.4	0.0	2.1	33.33
647	-1.4	0.0	2.1	33.33
648	-1.4	0.0	2.1	33.33
649	-1.4	0.0	2.1	33.33
650	-1.4	0.0	2.1	33.33
651	-1.4	0.0	2.1	33.33
652	-1.4	0.0	2.1	33.33
653	-1.4	0.0	2.1	33.33
654	-1.405	0.0	2.1	33.33
655	-1.405	0.0	2.1	33.33
656	-1.405	0.0	2.1	33.33
657	-1.4	0.0	2.1	33.33
658	-1.4	0.0	2.25	33.33
659	-1.4	0.0	2.1	33.33
660	-1.4	0.0	2.1	33.33
661	-1.4	0.0	2.1	33.33
662	-1.4	0.0	2.25	33.33
663	-1.4	0.0	2.1	33.33
664	-1.4	0.0	2.25	33.33
665	-1.4	0.0	2.25	33.33
666	-1.4	0.0	2.25	33.33
667	-1.4	0.0	2.25	33.33
668	-1.4	0.0	2.1	33.33
669	-1.4	0.0105	3.75	33.33
670	-0.775	0.678	90.0	33.33
671	1.44	1.35	148.35	33.33
672	1.83	1.6065	163.5	33.33
673	2.01	1.662	166.8	33.33
674	1.965	1.662	166.65	33.33
675	1.93	1.662	166.8	33.33
676	1.905	1.6605	166.8	33.33
677	1.88	1.659	166.65	33.33
678	1.86	1.662	166.65	33.33
679	1.835	1.6605	166.65	33.33
680	1.81	1.662	166.65	33.33
681	1.795	1.662	166.65	33.33
682	1.775	1.659	166.65	33.33
683	1.76	1.6605	166.65	33.33
684	1.74	1.6605	166.65	33.33
685	1.725	1.6605	166.65	33.33
686	1.71	1.6605	166.65	33.33
687	1.695	1.6575	166.65	33.33
688	1.68	1.659	166.65	33.33
689	1.67	1.6605	166.65	33.33
690	1.65	1.6605	166.65	33.33
691	1.645	1.6605	166.65	33.33
692	1.64	1.6575	166.65	33.33
693	1.625	1.659	166.65	33.33
694	1.61	1.6575	166.5	33.33
695	1.6	1.6575	166.5	33.33
696	1.59	1.656	166.5	33.33
697	1.585	1.6575	166.5	33.33
698	1.57	1.6575	166.5	33.33
699	1.565	1.656	166.5	33.33
700	1.555	1.656	166.5	33.33
701	1.55	1.656	166.5	33.33
702	1.545	1.6545	166.5	33.33
703	1.53	1.6545	166.35	33.33
704	1.525	1.653	166.35	33.33
705	1.52	1.6545	166.5	33.33
706	1.51	1.656	166.35	33.33
707	1.51	1.6545	166.35	33.33
708	1.505	1.6545	166.35	33.33
709	1.49	1.6545	166.35	33.33
710	1.49	1.6545	166.35	33.33
711	1.485	1.6545	166.35	33.33
712	1.48	1.6545	166.35	33.33
713	1.475	1.6545	166.35	33.33
714	1.465	1.656	166.35	33.33
715	1.46	1.6545	166.35	33.33
716	1.455	1.6545	166.35	33.33
717	1.455	1.6545	166.35	33.33
718	1.445	1.653	166.2	33.33
719	1.44	1.653	166.2	33.33
720	1.435	1.6515	166.2	33.33
721	1.43	1.6515	166.2	33.33
722	1.425	1.6515	166.2	33.33
723	1.425	1.65	166.2	33.33
724	1.42	1.65	166.2	33.33
725	1.41	1.6515	166.2	33.33
726	1.405	1.65	166.2	33.33
727	1.405	1.6515	166.2	33.33
728	1.4	1.65	166.2	33.33
729	1.395	1.647	166.05	33.33
730	1.4	1.65	166.05	33.33
731	1.395	1.6485	166.05	33.33
732	1.39	1.647	166.05	33.33
733	1.385	1.647	166.05	33.33
734	1.38	1.6455	166.05	33.33
735	1.37	1.647	166.05	33.33
736	1.37	1.647	166.05	33.33
737	1.37	1.6455	166.05	33.33
738	1.365	1.6455	165.9	33.33
739	1.36	1.6455	165.9	33.33
740	1.355	1.644	165.9	33.33
741	1.36	1.6455	165.9	33.33
742	1.355	1.6455	165.9	33.33
743	1.355	1.6455	165.9	33.33
744	1.35	1.644	165.9	33.33
745	1.34	1.644	165.9	33.33
746	1.34	1.644	165.9	33.33
747	1.335	1.644	165.9	33.33
748	1.33	1.644	165.9	33.33
749	1.33	1.6455	165.9	33.33
750	1.33	1.6455	165.9	33.33
751	1.325	1.644	165.9	33.33
752	1.33	1.644	165.9	33.33
753	1.33	1.644	165.9	33.33
754	1.325	1.644	165.9	33.33
755	1.325	1.644	165.9	33.33
756	1.32	1.644	165.9	33.33
757	1.315	1.6425	165.9	33.33
758	1.315	1.6425	165.75	33.33
759	1.31	1.644	165.75	33.33
760	1.31	1.6425	165.75	33.33
761	1.31	1.6425	165.75	33.33
762	1.305	1.641	165.75	33.33
763	1.305	1.641	165.75	33.33
764	1.305	1.641	165.75	33.33
765	1.3	1.6425	165.75	33.33
766	1.295	1.641	165.75	33.33
767	1.295	1.6395	165.75	33.33
768	1.29	1.6395	165.75	33.33
769	1.29	1.6395	165.75	33.33
770	1.29	1.6395	165.6	33.33
771	1.29	1.6395	165.6	33.33
772	1.29	1.6395	165.6	33.33
773	1.285	1.638	165.6	33.33
774	1.285	1.6365	165.6	33.33
775	1.285	1.6395	165.6	33.33
776	1.285	1.638	165.6	33.33
777	1.28	1.638	165.6	33.33
778	1.28	1.6365	165.6	33.33
779	1.27	1.6365	165.45	33.33
780	1.27	1.6365	165.45	33.33
781	1.27	1.635	165.45	33.33
782	1.265	1.6335	165.45	33.33
783	1.265	1.6335	165.45	33.33
784	1.265	1.6335	165.45	33.33
785	1.265	1.6335	165.45	33.33
786	1.27	1.6365	165.45	33.33
787	1.265	1.6365	165.45	33.33
788	1.265	1.635	165.45	33.33
789	1.255	1.635	165.45	33.33
790	1.255	1.635	165.45	33.33
791	1.255	1.6335	165.45	33.33
792	1.255	1.6335	165.45	33.33
793	1.255	1.6335	165.45	33.33
794	1.25	1.635	165.45	33.33
795	1.25	1.6335	165.45	33.33
796	1.245	1.6335	165.3	33.33
797	1.24	1.632	165.3	33.33
798	1.245	1.632	165.3	33.33
799	1.245	1.6335	165.3	33.33
800	1.24	1.632	165.3	33.33
801	1.24	1.632	165.3	33.33
802	1.24	1.632	165.3	33.33
803	1.24	1.6305	165.3	33.33
804	1.235	1.6305	165.15	33.33
805	1.235	1.6305	165.15	33.33
806	1.235	1.6305	165.3	33.33
807	1.235	1.6275	165.15	33.33
808	1.235	1.629	165.15	33.33
809	1.23	1.629	165.15	33.33
810	1.23	1.6275	165.15	33.33
811	1.23	1.6275	165.15	33.33
812	1.225	1.6275	165.15	33.33
813	1.23	1.6275	165.15	33.33
814	1.225	1.6305	165.15	33.33
815	1.225	1.6305	165.15	33.33
816	1.22	1.629	165.15	33.33
817	1.225	1.629	165.15	33.33
818	1.225	1.629	165.15	33.33
819	1.225	1.6275	165.0	33.33
820	1.22	1.6275	165.0	33.33
821	1.22	1.6275	165.0	33.33
822	1.22	1.626	165.0	33.33
823	1.215	1.629	165.0	33.33
824	1.22	1.6245	165.0	33.33
825	1.215	1.626	165.0	33.33
826	1.215	1.626	165.0	33.33
827	1.21	1.626	165.0	33.33
828	1.215	1.626	165.0	33.33
829	1.215	1.626	165.0	33.33
830	1.21	1.626	165.0	33.33
831	1.21	1.626	165.0	33.33
832	1.215	1.626	165.0	33.33
833	1.21	1.6245	165.0	33.33
834	1.205	1.626	165.0	33.33
835	1.21	1.626	165.0	33.33
836	1.21	1.626	165.0	33.33
837	1.21	1.6275	165.0	33.33
838	1.21	1.626	165.0	33.33
839	1.205	1.623	165.0	33.33
840	1.205	1.6245	164.85	33.33
841	1.2	1.623	164.85	33.33
842	1.2	1.6245	164.85	33.33
843	1.2	1.6245	164.85	33.33
844	1.2	1.626	164.85	33.33
845	1.2	1.6245	164.85	33.33
846	1.205	1.623	164.85	33.33
847	1.2	1.623	164.85	33.33
848	1.2	1.623	164.85	33.33
849	1.195	1.623	164.85	33.33
850	1.2	1.6245	164.85	33.33
851	1.195	1.6245	164.85	33.33
852	1.2	1.6245	164.85	33.33
853	1.195	1.6245	164.85	33.33
854	1.2	1.623	164.85	33.33
855	1.2	1.623	164.85	33.33
856	1.195	1.6215	164.85	33.33
857	1.195	1.6215	164.7	33.33
858	1.19	1.6215	164.7	33.33
859	1.195	1.62	164.7	33.33
860	1.19	1.6215	164.7	33.33
861	1.19	1.623	164.7	33.33
862	1.195	1.6215	164.7	33.33
863	1.19	1.6215	164.7	33.33
864	1.185	1.62	164.7	33.33
865	1.185	1.62	164.7	33.33
866	1.185	1.6215	164.7	33.33
867	1.19	1.62	164.7	33.33
868	1.19	1.62	164.7	33.33
869	1.185	1.6215	164.55	33.33
870	1.185	1.6185	164.55	33.33
871	1.185	1.6185	164.55	33.33
872	1.185	1.62	164.55	33.33
873	1.185	1.617	164.55	33.33
874	1.18	1.6185	164.55	33.33
875	1.18	1.6185	164.55	33.33
876	1.185	1.617	164.55	33.33
877	1.185	1.617	164.55	33.33
878	1.19	1.617	164.55	33.33
879	1.185	1.6155	164.55	33.33
880	1.185	1.617	164.55	33.33
881	1.18	1.6185	164.55	33.33
882	1.175	1.6185	164.55	33.33
883	1.175	1.6155	164.55	33.33
884	1.175	1.617	164.55	33.33
885	1.18	1.617	164.55	33.33
886	1.18	1.6185	164.4	33.33
887	1.18	1.6155	164.4	33.33
888	1.185	1.614	164.4	33.33
889	1.18	1.614	164.4	33.33
890	1.18	1.6155	164.4	33.33
891	1.18	1.617	164.4	33.33
892	1.18	1.614	164.4	33.33
893	1.175	1.6125	164.4	33.33
894	1.175	1.6125	164.25	33.33
895	1.17	1.6125	164.25	33.33
896	1.175	1.6125	164.25	33.33
897	1.175	1.611	164.25	33.33
898	1.17	1.611	164.25	33.33
899	1.18	1.614	164.25	33.33
900	1.18	1.6125	164.25	33.33
901	1.175	1.6125	164.25	33.33
902	1.18	1.611	164.25	33.33
903	1.17	1.611	164.1	33.33
904	1.17	1.611	164.1	33.33
905	1.165	1.6095	164.1	33.33
906	1.165	1.6095	164.1	33.33
907	1.17	1.6095	164.1	33.33
908	1.165	1.6095	164.1	33.33
909	1.165	1.6095	164.1	33.33
910	1.16	1.6095	164.1	33.33
911	1.165	1.608	164.1	33.33
912	1.17	1.6065	163.95	33.33
913	1.155	1.6065	163.95	33.33
914	1.16	1.6065	163.95	33.33
915	1.165	1.608	163.95	33.33
916	1.16	1.608	163.95	33.33
917	1.155	1.608	163.95	33.33
918	1.16	1.6065	163.95	33.33
919	1.165	1.6065	163.95	33.33
920	1.16	1.608	163.95	33.33
921	1.16	1.6065	163.95	33.33
922	1.16	1.605	163.95	33.33
923	1.16	1.608	163.95	33.33
924	1.16	1.6065	163.95	33.33
925	1.155	1.6065	163.8	33.33
926	1.155	1.6065	163.95	33.33
927	0.31	1.2705	144.0	33.33
928	-1.915	0.306	48.0	33.33
929	-2.165	0.0015	2.4	33.33
930	-2.11	0.0	2.25	33.33
931	-2.06	0.0	2.25	33.33
932	-2.025	0.0	2.25	33.33
933	-1.99	0.0	2.25	33.33
934	-1.96	0.0	2.25	33.33
935	-1.93	0.0	2.25	33.33
936	-1.905	0.0	2.25	33.33
937	-1.885	0.0	2.25	33.33
938	-1.865	0.0	2.25	33.33
939	-1.845	0.0	2.25	33.33
940	-1.825	0.0	2.25	33.33
941	-1.81	0.0	2.25	33.33
942	-1.79	0.0	2.25	33.33
943	-1.78	0.0	2.25	33.33
944	-1.765	0.0	2.25	33.33
945	-1.75	0.0	2.25	33.33
946	-1.74	0.0	2.25	33.33
947	-1.73	0.0	2.25	33.33
948	-1.72	0.0	2.25	33.33
949	-1.71	0.0	2.25	33.33
950	-1.7	0.0	2.25	33.33
951	-1.69	0.0	2.25	33.33
952	-1.68	0.0	2.25	33.33
953	-1.675	0.0	2.25	33.33
954	-1.665	0.0	2.25	33.33
955	-1.655	0.0	2.25	33.33
956	-1.645	0.0	2.25	33.33
957	-1.64	0.0	2.25	33.33
958	-1.63	0.0	2.25	33.33
959	-1.625	0.0	2.25	33.33
960	-1.615	0.0	2.25	33.33
961	-1.61	0.0	2.25	33.33
962	-1.605	0.0	2.25	33.33
963	-1.6	0.0	2.25	33.33
964	-1.59	-0.0015	2.25	33.33
965	-1.585	0.0	2.25	33.33
966	-1.58	0.0	2.25	33.33
967	-1.575	0.0	2.25	33.33
968	-1.57	0.0	2.25	33.33
969	-1.565	0.0	2.25	33.33
970	-1.56	0.0	2.25	33.33
971	-1.555	0.0	2.25	33.33
972	-1.555	0.0	2.25	33.33
973	-1.55	0.0	2.25	33.33
974	-1.545	0.0	2.25	33.33
975	-1.54	0.0	2.25	33.33
976	-1.535	0.0	2.25	33.33
977	-1.535	0.0	2.25	33.33
978	-1.53	0.0	2.25	33.33
979	-1.525	0.0	2.25	33.33
980	-1.52	0.0	2.25	33.33
981	-1.52	0.0	2.25	33.33
982	-1.515	0.0	2.25	33.33
983	-1.51	0.0	2.25	33.33
984	-1.505	0.0	2.25	33.33
985	-1.5	0.0	2.25	33.33
986	-1.5	0.0	2.25	33.33
987	-1.495	0.0	2.25	33.33
988	-1.49	0.0	2.25	33.33
989	-1.49	0.0	2.25	33.33
990	-1.485	0.0	2.25	33.33
991	-1.48	0.0	2.25	33.33
992	-1.48	0.0	2.25	33.33
993	-1.475	0.0	2.25	33.33
994	-1.475	0.0	2.25	33.33
995	-1.475	0.0	2.25	33.33
996	-1.47	0.0	2.25	33.33
997	-1.47	0.0	2.25	33.33
998	-1.465	0.0	2.25	33.33
999	-1.47	0.0	2.25	33.33
1000	-1.465	0.0	2.25	33.33
1001	-1.46	0.0	2.25	33.33
1002	-1.46	0.0	2.25	33.33
1003	-1.455	0.0	2.25	33.33
1004	-1.455	0.0	2.25	33.33
1005	-1.45	0.0	2.25	33.33
1006	-1.445	0.0	2.25	33.33
1007	-1.445	0.0	2.25	33.33
1008	-1.44	0.0	2.25	33.33
1009	-1.44	0.0	2.25	33.33
1010	-1.44	0.0	2.25	33.33
1011	-1.435	0.0	2.25	33.33
1012	-1.435	0.0	2.25	33.33
1013	-1.435	0.0	2.25	33.33
1014	-1.43	0.0	2.25	33.33
1015	-1.43	0.0	2.25	33.33
1016	-1.43	0.0	2.25	33.33
1017	-1.425	0.0	2.25	33.33
1018	-1.425	0.0	2.25	33.33
1019	-1.425	0.0	2.25	33.33
1020	-1.425	0.0	2.25	33.33
1021	-1.42	0.0	2.25	33.33
1022	-1.42	0.0	2.25	33.33
1023	-1.42	0.0	2.25	33.33
1024	-1.415	0.0	2.25	33.33
1025	-1.415	0.0	2.25	33.33
1026	-1.41	0.0	2.25	33.33
1027	-1.41	0.0	2.25	33.33
1028	-1.41	0.0	2.25	33.33
1029	-1.41	0.0	2.25	33.33
1030	-1.405	0.0	2.25	33.33
1031	-1.405	0.0	2.25	33.33
1032	-1.405	0.0	2.25	33.33
1033	-1.405	0.0	2.25	33.33
1034	-1.405	0.0	2.25	33.33
1035	-1.405	0.0	2.25	33.33
1036	-1.4	0.0	2.25	33.33
1037	-1.4	0.0	2.25	33.33
1038	-1.395	0.0	2.25	33.33
1039	-1.395	0.0	2.25	33.33
1040	-1.4	0.0	2.25	33.33
1041	-1.395	0.0	2.25	33.33
1042	-1.395	0.0	2.25	33.33
1043	-1.395	0.0	2.25	33.33
1044	-1.395	0.0	2.25	33.33
1045	-1.395	0.0	2.25	33.33
1046	-1.395	0.0	2.25	33.33
1047	-1.395	0.0	2.25	33.33
1048	-1.39	0.0	2.25	33.33
1049	-1.39	0.0	2.25	33.33
1050	-1.385	0.0	2.25	33.33
1051	-1.385	0.0	2.25	33.33
1052	-1.385	0.0	2.25	33.33
1053	-1.385	0.0	2.25	33.33
1054	-1.385	0.0	2.25	33.33
1055	-1.385	0.0	2.25	33.33
1056	-1.385	0.0	2.25	33.33
1057	-1.385	0.0	2.25	33.33
1058	-1.38	0.0	2.25	33.33
1059	-1.38	0.0	2.25	33.33
1060	-1.38	0.0	2.25	33.33
1061	-1.38	0.0	2.25	33.33
1062	-1.38	0.0	2.25	33.33
1063	-1.375	0.0	2.25	33.33
1064	-1.38	0.0	2.25	33.33
1065	-1.38	0.0	2.25	33.33
1066	-1.38	0.0	2.25	33.33
1067	-1.375	0.0	2.25	33.33
1068	-1.375	0.0	2.25	33.33
1069	-1.375	0.0	2.25	33.33
1070	-1.375	0.0	2.25	33.33
1071	-1.37	0.0	2.25	33.33
1072	-1.375	0.0	2.25	33.33
1073	-1.37	0.0	2.25	33.33
1074	-1.37	0.0	2.25	33.33
1075	-1.37	0.0	2.25	33.33
1076	-1.365	0.0	2.25	33.33
1077	-1.37	0.0	2.25	33.33
1078	-1.37	0.0	2.25	33.33
1079	-1.365	0.0	2.25	33.33
1080	-1.365	0.0	2.25	33.33
1081	-1.365	0.0	2.25	33.33
1082	-1.365	0.0	2.25	33.33
1083	-1.36	0.0	2.25	33.33
1084	-1.36	0.0	2.25	33.33
1085	-1.365	0.0	2.25	33.33
1086	-1.365	0.0	2.25	33.33
1087	-1.36	0.0	2.25	33.33
1088	-1.36	0.0	2.25	33.33
1089	-1.36	0.0	2.25	33.33
1090	-1.36	0.0	2.25	33.33
1091	-1.36	0.0	2.25	33.33
1092	-1.36	0.0	2.25	33.33
1093	-1.355	0.0	2.25	33.33
1094	-1.355	0.0	2.1	33.33
1095	-1.355	0.0	2.25	33.33
1096	-1.355	0.0	2.25	33.33
1097	-1.355	0.0	2.25	33.33
1098	-1.355	0.0	2.25	33.33
1099	-1.355	0.0	2.1	33.33
1100	-1.355	0.0	2.25	33.33
1101	-1.355	0.0	2.25	33.33
1102	-1.355	0.0	2.25	33.33
1103	-1.35	0.0	2.25	33.33
1104	-1.355	0.0	2.1	33.33
1105	-1.35	0.0	2.25	33.33
1106	-1.35	0.0	2.25	33.33
1107	-1.35	0.0	2.25	33.33
1108	-1.35	0.0	2.25	33.33
1109	-1.35	0.0	2.25	33.33
1110	-1.345	0.0	2.25	33.33
1111	-1.35	0.0	2.25	33.33
1112	-1.345	0.0	2.25	33.33
1113	-1.35	0.0	2.25	33.33
1114	-1.35	0.0	2.25	33.33
1115	-1.35	0.0	2.25	33.33
1116	-1.345	0.0	2.25	33.33
1117	-1.345	0.0	2.25	33.33
1118	-1.35	0.0	2.25	33.33
1119	-1.35	0.0	2.25	33.33
1120	-1.345	0.0	2.25	33.33
1121	-1.345	0.0	2.25	33.33
1122	-1.345	0.0	2.25	33.33
1123	-1.345	0.0	2.25	33.33
1124	-1.345	0.0	2.25	33.33
1125	-1.345	0.0	2.25	33.33
1126	-1.345	0.0	2.25	33.33
1127	-1.345	0.0	2.25	33.33
1128	-1.345	0.0	2.25	33.33
1129	-1.34	0.0	2.25	33.33
1130	-1.345	0.0	2.25	33.33
1131	-1.345	0.0	2.25	33.33
1132	-1.345	0.0	2.25	33.33
1133	-1.34	0.0	2.25	33.33
1134	-1.34	0.0	2.25	33.33
1135	-1.34	0.0	2.25	33.33
1136	-1.345	0.0	2.25	33.33
1137	-1.345	0.0	2.25	33.33
1138	-1.345	0.0	2.25	33.33
1139	-1.34	0.0	2.25	33.33
1140	-1.34	0.0	2.25	33.33
1141	-1.34	0.0	2.25	33.33
1142	-1.34	0.0	2.25	33.33
1143	-1.34	0.0	2.25	33.33
1144	-1.34	0.0	2.25	33.33
1145	-1.34	0.0	2.25	33.33
1146	-1.34	0.0	2.25	33.33
1147	-1.34	0.0	2.25	33.33
1148	-1.34	0.0	2.25	33.33
1149	-1.34	0.0	2.25	33.33
1150	-1.335	0.0	2.25	33.33
1151	-1.335	0.0	2.25	33.33
1152	-1.34	0.0	2.25	33.33
1153	-1.34	0.0	2.25	33.33
1154	-1.34	0.0	2.25	33.33
1155	-1.34	0.0	2.25	33.33
1156	-1.34	0.0	2.25	33.33
1157	-1.34	0.0	2.25	33.33
1158	-1.34	0.0	2.25	33.33
1159	-1.34	0.0	2.25	33.33
1160	-1.34	0.0	2.25	33.33
1161	-1.34	0.0	2.25	33.33
1162	-1.335	0.0	2.25	33.33
1163	-1.335	0.0	2.25	33.33
1164	-1.33	0.0	2.25	33.33
1165	-1.33	0.0	2.25	33.33
1166	-1.325	0.0	2.25	33.33
1167	-1.325	0.0	2.25	33.33
1168	-1.33	0.0	2.25	33.33
1169	-1.33	0.0	2.25	33.33
1170	-1.33	0.0	2.25	33.33
1171	-1.33	0.0	2.25	33.33
1172	-1.33	0.0	2.25	33.33
1173	-1.33	0.0	2.25	33.33
1174	-1.33	0.0	2.25	33.33
1175	-1.325	0.0	2.25	33.33
1176	-1.33	0.0	2.25	33.33
1177	-1.325	0.0	2.25	33.33
1178	-1.325	0.0	2.25	33.33
1179	-1.325	0.0	2.25	33.33
1180	-1.33	0.0	2.25	33.33
1181	-1.33	0.0	2.25	33.33
1182	-1.33	0.0	2.25	33.33
1183	-1.33	0.0	2.25	33.33
1184	-1.33	0.0	2.25	33.33
1185	-1.325	0.0	2.25	33.33
1186	-1.325	0.0	2.25	33.33
1187	-1.325	0.0	2.25	33.33
1188	-1.325	0.0	2.25	33.33
1189	-1.325	0.0	2.25	33.33
1190	-1.325	0.0	2.25	33.33
1191	-1.33	0.0	2.25	33.33
1192	-1.325	0.0	2.25	33.33
1193	-1.33	0.0	2.25	33.33
1194	-1.325	0.0	2.25	33.33
1195	-1.325	0.0	2.25	33.33
1196	-1.325	0.0	2.25	33.33
1197	-1.325	0.0	2.25	33.33
1198	-1.325	0.0	2.25	33.33
1199	-1.325	0.0	2.25	33.33
1200	-1.325	0.0	2.25	33.33
1201	-1.325	0.0	2.25	33.33
1202	-1.325	-0.0015	2.25	33.33
1203	-1.325	0.0	2.25	33.33
1204	-1.33	0.0	2.25	33.33
1205	-1.325	0.0	2.25	33.33
1206	-1.32	0.0	2.25	33.33
1207	-1.325	0.0	2.25	33.33
1208	-1.325	0.0	2.25	33.33
1209	-1.325	0.0	2.25	33.33
1210	-1.325	0.0	2.25	33.33
1211	-1.32	0.0	2.25	33.33
1212	-1.325	0.0	2.25	33.33
1213	-1.315	0.0	2.25	16.67
1214	-1.295	0.0	2.25	16.67
1215	-1.28	0.0	2.25	16.67
1216	-1.265	0.0	2.25	16.67
1217	-1.25	0.0	2.25	16.67
1218	-1.24	0.0	2.25	16.67
1219	-1.23	0.0	2.25	16.67
1220	-1.225	0.0	2.25	16.67
1221	-1.22	-0.0015	2.25	16.67
1222	-1.215	0.0	2.25	16.67
1223	-1.205	0.0	2.25	16.67
1224	-1.195	0.0	2.25	16.67
1225	-1.18	0.0	2.25	16.67
1226	-1.17	0.0	2.25	16.67
1227	-1.165	0.0	2.25	16.67
1228	-1.165	0.0	2.25	16.67
1229	-1.165	0.0	2.25	16.67
1230	-1.16	0.0	2.25	16.67
1231	-1.155	0.0	2.25	16.67
1232	-1.155	0.0	2.25	16.67
1233	-1.15	0.0	2.25	16.67
1234	-1.15	0.0	2.25	16.67
1235	-1.145	0.0	2.25	16.67
1236	-1.145	0.0	2.25	16.67
1237	-1.145	0.0	2.25	16.67
1238	-1.14	0.0	2.25	16.67
1239	-1.14	-0.0015	2.25	16.67
1240	-1.135	0.0	2.25	16.67
1241	-1.13	0.0	2.25	16.67
1242	-1.13	0.0	2.25	16.67
1243	-1.125	0.0	2.25	16.67
1244	-1.125	0.0	2.25	16.67
1245	-1.125	0.0	2.25	16.67
1246	-1.12	0.0	2.25	16.67
1247	-1.12	0.0	2.25	16.67
1248	-1.12	0.0	2.25	16.67
1249	-1.12	0.0	2.25	16.67
1250	-1.12	0.0	2.25	16.67
1251	-1.12	0.0	2.25	16.67
1252	-1.12	0.0	2.25	16.67
1253	-1.115	0.0	2.25	16.67
1254	-1.115	0.0	2.25	16.67
1255	-1.115	0.0	2.25	16.67
1256	-1.11	0.0	2.25	16.67
1257	-1.11	0.0	2.25	16.67
1258	-1.105	0.0	2.25	16.67
1259	-1.105	0.0	2.25	16.67
1260	-1.105	0.0	2.25	16.67
1261	-1.1	0.0	2.25	16.67
1262	-1.1	-0.0015	2.25	16.67
1263	-1.1	0.0	2.25	16.67
1264	-1.1	0.0	2.25	16.67
1265	-1.1	0.0	2.25	16.67
1266	-1.1	0.0	2.25	16.67
1267	-1.1	0.0	2.25	16.67
1268	-1.1	0.0	2.25	16.67
1269	-1.095	0.0	2.25	16.67
1270	-1.095	0.0	2.25	16.67
1271	-1.09	0.0	2.25	16.67
1272	-1.09	0.0	2.25	16.67
1273	-1.09	0.0	2.25	16.67
1274	-1.09	0.0	2.25	16.67
1275	-1.09	0.0	2.25	16.67
1276	-1.09	0.0	2.25	16.67
1277	-1.09	0.0	2.25	16.67
1278	-1.09	0.0	2.25	16.67
1279	-1.09	0.0	2.25	16.67
1280	-1.095	0.0	2.25	16.67
1281	-1.09	0.0	2.25	16.67
1282	-1.09	0.0	2.25	16.67
1283	-1.085	0.0	2.25	16.67
1284	-1.085	0.0	2.25	16.67
1285	-1.085	0.0	2.25	16.67
1286	-1.085	0.0	2.25	16.67
1287	-1.085	-0.0015	2.25	16.67
1288	-1.085	0.0	2.25	16.67
1289	-1.085	0.0	2.25	16.67
1290	-1.08	0.0	2.25	16.67
1291	-1.085	0.0	2.25	16.67
1292	-1.085	0.0	2.25	16.67
1293	-1.085	0.0	2.25	16.67
1294	-1.08	0.0	2.25	16.67
1295	-1.08	0.0	2.25	16.67
1296	-1.08	0.0	2.25	16.67
1297	-1.08	0.0	2.25	16.67
1298	-1.08	0.0	2.25	16.67
1299	-1.08	0.0	2.25	16.67
1300	-1.08	0.0	2.25	16.67
1301	-1.075	0.0	2.25	16.67
1302	-1.075	0.0	2.25	16.67
1303	-1.075	0.0	2.25	16.67
1304	-1.075	0.0	2.25	16.67
1305	-1.075	0.0	2.25	16.67
1306	-1.075	0.0	2.25	16.67
1307	-1.075	0.0	2.25	16.67
1308	-1.07	0.0	2.25	16.67
1309	-1.07	0.0	2.25	16.67
1310	-1.075	0.0	2.25	16.67
1311	-1.075	0.0	2.25	16.67
1312	-1.07	-0.0015	2.25	16.67
1313	-1.07	-0.0015	2.25	16.67
1314	-1.07	0.0	2.25	16.67
1315	-1.065	0.0	2.25	16.67
1316	-1.065	0.0	2.25	16.67
1317	-1.065	0.0	2.25	16.67
1318	-1.065	0.0	2.25	16.67
1319	-1.07	0.0	2.25	16.67
1320	-1.07	0.0	2.25	16.67
1321	-1.07	0.0	2.25	16.67
1322	-1.065	0.0	2.25	16.67
1323	-1.065	0.0	2.25	16.67
1324	-1.065	0.0	2.25	16.67
1325	-1.06	0.0	2.25	16.67
1326	-1.06	0.0	2.25	16.67
1327	-1.06	0.0	2.25	16.67
1328	-1.06	0.0	2.25	16.67
1329	-1.06	0.0	2.25	16.67
1330	-1.06	0.0	2.25	16.67
1331	-1.06	0.0	2.25	16.67
1332	-1.06	0.0	2.25	16.67
1333	-1.06	0.0	2.25	16.67
1334	-1.06	0.0	2.25	16.67
1335	-1.06	0.0	2.25	16.67
1336	-1.06	0.0	2.25	16.67
1337	-1.055	-0.0015	2.25	16.67
1338	-1.055	0.0	2.25	16.67
1339	-1.055	0.0	2.25	16.67
1340	-1.055	0.0	2.25	16.67
1341	-1.055	0.0	2.25	16.67
1342	-1.055	0.0	2.25	16.67
1343	-1.055	0.0	2.25	16.67
1344	-1.06	0.0	2.25	16.67
1345	-1.055	0.0	2.25	16.67
1346	-1.055	0.0	2.25	16.67
1347	-1.055	0.0	2.25	16.67
1348	-1.055	0.0	2.25	16.67
1349	-1.055	0.0	2.25	16.67
1350	-1.055	0.0	2.25	16.67
1351	-1.055	0.0	2.25	16.67
1352	-1.055	0.0	2.25	16.67
1353	-1.06	0.0	2.25	16.67
1354	-1.055	0.0	2.25	16.67
1355	-1.055	0.0	2.25	16.67
1356	-1.055	0.0	2.25	16.67
1357	-1.055	0.0	2.25	16.67
1358	-1.055	0.0	2.25	16.67
1359	-1.055	0.0	2.25	16.67
1360	-1.055	0.0	2.25	16.67
1361	-1.05	0.0	2.25	16.67
1362	-1.05	0.0	2.25	16.67
1363	-1.055	0.0	2.25	16.67
1364	-1.055	0.0	2.25	16.67
1365	-1.055	0.0	2.25	16.67
1366	-1.055	0.0	2.25	16.67
1367	-1.055	0.0	2.25	16.67
1368	-1.055	0.0	2.25	16.67
1369	-1.05	0.0	2.25	16.67
1370	-1.055	0.0	2.25	16.67
1371	-1.04	0.0	2.25	16.67
1372	-1.035	0.0	2.25	16.67
1373	-1.04	0.0	2.25	16.67
1374	-1.04	0.0	2.25	16.67
1375	-1.05	0.0	2.25	16.67
1376	-1.05	0.0	2.25	16.67
1377	-1.05	0.0	2.25	16.67
1378	-1.05	0.0105	3.9	16.67
1379	0.425	0.54	75.6	16.67
1380	2.02	1.4085	150.9	16.67
1381	2.245	1.6545	166.05	16.67
1382	2.16	1.6545	166.05	16.67
1383	2.095	1.6545	166.2	16.67
1384	2.04	1.6545	166.2	16.67
1385	1.995	1.6545	166.05	16.67
1386	1.945	1.656	166.05	16.67
1387	1.91	1.6545	166.2	16.67
1388	1.87	1.6545	166.05	16.67
1389	1.835	1.6545	166.2	16.67
1390	1.8	1.6545	166.05	16.67
1391	1.77	1.6545	166.05	16.67
1392	1.74	1.653	166.05	16.67
1393	1.715	1.653	166.05	16.67
1394	1.695	1.653	166.05	16.67
1395	1.67	1.6515	166.05	16.67
1396	1.65	1.653	166.05	16.67
1397	1.625	1.6515	165.9	16.67
1398	1.61	1.6515	165.9	16.67
1399	1.595	1.6515	166.05	16.67
1400	1.57	1.65	166.05	16.67
1401	1.555	1.6515	165.9	16.67
1402	1.545	1.6485	165.9	16.67
1403	1.525	1.6485	165.9	16.67
1404	1.515	1.65	165.9	16.67
1405	1.505	1.65	165.9	16.67
1406	1.49	1.65	165.9	16.67
1407	1.48	1.6485	165.9	16.67
1408	1.465	1.65	165.9	16.67
1409	1.45	1.6485	165.9	16.67
1410	1.44	1.6485	165.9	16.67
1411	1.43	1.65	165.9	16.67
1412	1.42	1.6485	165.9	16.67
1413	1.415	1.6485	165.9	16.67
1414	1.405	1.65	165.9	16.67
1415	1.39	1.647	165.75	16.67
1416	1.385	1.6485	165.75	16.67
1417	1.375	1.647	165.75	16.67
1418	1.365	1.6455	165.75	16.67
1419	1.36	1.644	165.75	16.67
1420	1.35	1.6455	165.75	16.67
1421	1.34	1.6455	165.75	16.67
1422	1.335	1.6455	165.75	16.67
1423	1.325	1.6455	165.75	16.67
1424	1.32	1.6455	165.75	16.67
1425	1.31	1.6455	165.75	16.67
1426	1.31	1.6455	165.75	16.67
1427	1.3	1.644	165.75	16.67
1428	1.3	1.644	165.6	16.67
1429	1.29	1.6455	165.75	16.67
1430	1.29	1.644	165.6	16.67
1431	1.285	1.644	165.6	16.67
1432	1.275	1.644	165.6	16.67
1433	1.265	1.6425	165.6	16.67
1434	1.265	1.644	165.6	16.67
1435	1.26	1.6425	165.6	16.67
1436	1.255	1.6425	165.6	16.67
1437	1.245	1.641	165.6	16.67
1438	1.245	1.641	165.6	16.67
1439	1.24	1.6425	165.6	16.67
1440	1.235	1.6425	165.45	16.67
1441	1.225	1.6395	165.45	16.67
1442	1.23	1.6395	165.45	16.67
1443	1.225	1.6395	165.45	16.67
1444	1.22	1.638	165.45	16.67
1445	1.21	1.6395	165.45	16.67
1446	1.205	1.6395	165.45	16.67
1447	1.2	1.638	165.45	16.67
1448	1.2	1.638	165.3	16.67
1449	1.195	1.638	165.3	16.67
1450	1.19	1.6365	165.45	16.67
1451	1.19	1.638	165.45	16.67
1452	1.18	1.638	165.3	16.67
1453	1.185	1.638	165.45	16.67
1454	1.175	1.638	165.3	16.67
1455	1.165	1.638	165.3	16.67
1456	1.17	1.638	165.3	16.67
1457	1.165	1.6365	165.3	16.67
1458	1.155	1.6365	165.3	16.67
1459	1.155	1.635	165.3	16.67
1460	1.16	1.635	165.3	16.67
1461	1.155	1.6365	165.3	16.67
1462	1.15	1.6365	165.3	16.67
1463	1.145	1.6365	165.3	16.67
1464	1.145	1.638	165.3	16.67
1465	1.14	1.635	165.3	16.67
1466	1.135	1.635	165.3	16.67
1467	1.135	1.635	165.3	16.67
1468	1.13	1.635	165.15	16.67
1469	1.13	1.635	165.15	16.67
1470	1.13	1.6335	165.15	16.67
1471	1.125	1.6335	165.15	16.67
1472	1.12	1.6335	165.15	16.67
1473	1.12	1.635	165.15	16.67
1474	1.125	1.6335	165.15	16.67
1475	1.115	1.632	165.0	16.67
1476	1.11	1.6305	165.0	16.67
1477	1.11	1.6305	165.0	16.67
1478	1.115	1.6305	165.0	16.67
1479	1.11	1.632	165.0	16.67
1480	1.105	1.629	165.0	16.67
1481	1.1	1.629	165.0	16.67
1482	1.1	1.629	165.0	16.67
1483	1.095	1.6275	165.0	16.67
1484	1.09	1.629	164.85	16.67
1485	1.09	1.629	165.0	16.67
1486	1.085	1.629	164.85	16.67
1487	1.08	1.6275	164.85	16.67
1488	1.08	1.629	164.85	16.67
1489	1.08	1.629	164.85	16.67
1490	1.08	1.6275	164.85	16.67
1491	1.075	1.6275	164.85	16.67
1492	1.08	1.6275	164.85	16.67
1493	1.075	1.6275	164.85	16.67
1494	1.07	1.6275	164.85	16.67
1495	1.07	1.626	164.85	16.67
1496	1.065	1.626	164.85	16.67
1497	1.06	1.626	164.85	16.67
1498	1.065	1.626	164.7	16.67
1499	1.065	1.626	164.7	16.67
1500	1.06	1.626	164.7	16.67
1501	1.055	1.626	164.7	16.67
1502	1.06	1.623	164.7	16.67
1503	1.065	1.6245	164.7	16.67
1504	1.06	1.626	164.7	16.67
1505	1.055	1.626	164.7	16.67
1506	1.06	1.6275	164.7	16.67
1507	1.055	1.626	164.7	16.67
1508	1.055	1.626	164.7	16.67
1509	1.05	1.6245	164.7	16.67
1510	1.05	1.6245	164.7	16.67
1511	1.045	1.623	164.7	16.67
1512	1.05	1.623	164.7	16.67
1513	1.04	1.623	164.7	16.67
1514	1.04	1.623	164.55	16.67
1515	1.035	1.623	164.55	16.67
1516	1.035	1.6215	164.55	16.67
1517	1.03	1.623	164.55	16.67
1518	1.03	1.6215	164.55	16.67
1519	1.03	1.6215	164.55	16.67
1520	1.025	1.623	164.55	16.67
1521	1.02	1.623	164.4	16.67
1522	1.025	1.62	164.4	16.67
1523	1.025	1.623	164.55	16.67
1524	1.025	1.62	164.55	16.67
1525	1.02	1.6215	164.4	16.67
1526	1.025	1.6215	164.4	16.67
1527	1.02	1.62	164.4	16.67
1528	1.02	1.6185	164.4	16.67
1529	1.025	1.6185	164.4	16.67
1530	1.02	1.617	164.4	16.67
1531	1.015	1.6185	164.4	16.67
1532	1.02	1.617	164.4	16.67
1533	1.015	1.6185	164.4	16.67
1534	1.015	1.62	164.4	16.67
1535	1.01	1.6185	164.4	16.67
1536	1.015	1.617	164.4	16.67
1537	1.015	1.6185	164.4	16.67
1538	1.01	1.6185	164.4	16.67
1539	1.01	1.62	164.4	16.67
1540	1.005	1.617	164.25	16.67
1541	1.005	1.617	164.25	16.67
1542	1.01	1.617	164.25	16.67
1543	1.005	1.617	164.25	16.67
1544	1.005	1.6185	164.4	16.67
1545	1.01	1.617	164.4	16.67
1546	1.0	1.6185	164.25	16.67
1547	1.0	1.617	164.25	16.67
1548	1.0	1.614	164.25	16.67
1549	1.0	1.6155	164.25	16.67
1550	1.0	1.617	164.25	16.67
1551	1.0	1.6155	164.25	16.67
1552	1.0	1.617	164.25	16.67
1553	1.0	1.6155	164.25	16.67
1554	1.0	1.6155	164.25	16.67
1555	0.99	1.6155	164.25	16.67
1556	0.995	1.6155	164.1	16.67
1557	0.985	1.6155	164.1	16.67
1558	0.99	1.6155	164.25	16.67
1559	0.985	1.614	164.25	16.67
1560	0.99	1.614	164.1	16.67
1561	0.985	1.614	164.1	16.67
1562	0.985	1.6125	164.1	16.67
1563	0.985	1.611	163.95	16.67
1564	0.985	1.6125	164.1	16.67
1565	0.98	1.614	164.1	16.67
1566	0.98	1.6125	164.1	16.67
1567	0.98	1.611	164.1	16.67
1568	0.975	1.6125	164.1	16.67
1569	0.98	1.6125	164.1	16.67
1570	0.98	1.6125	164.1	16.67
1571	0.98	1.6125	164.1	16.67
1572	0.97	1.6095	163.95	16.67
1573	0.965	1.6095	163.95	16.67
1574	0.97	1.611	163.95	16.67
1575	0.97	1.611	163.95	16.67
1576	0.97	1.6125	163.95	16.67
1577	0.965	1.6125	163.95	16.67
1578	0.97	1.611	163.95	16.67
1579	0.965	1.611	163.95	16.67
1580	0.965	1.611	163.95	16.67
1581	0.96	1.6095	163.95	16.67
1582	0.96	1.608	163.8	16.67
1583	0.96	1.608	163.8	16.67
1584	0.965	1.6095	163.8	16.67
1585	0.965	1.6095	163.8	16.67
1586	0.965	1.6095	163.8	16.67
1587	0.96	1.608	163.8	16.67
1588	0.96	1.6095	163.8	16.67
1589	0.955	1.6095	163.8	16.67
1590	0.96	1.608	163.8	16.67
1591	0.96	1.6095	163.8	16.67
1592	0.955	1.608	163.8	16.67
1593	0.95	1.608	163.8	16.67
1594	0.95	1.6095	163.8	16.67
1595	0.95	1.6065	163.8	16.67
1596	0.945	1.608	163.8	16.67
1597	0.94	1.6065	163.65	16.67
1598	0.945	1.605	163.65	16.67
1599	0.95	1.6035	163.65	16.67
1600	0.95	1.6035	163.65	16.67
1601	0.945	1.605	163.65	16.67
1602	0.94	1.605	163.65	16.67
1603	0.94	1.605	163.65	16.67
1604	0.94	1.6065	163.65	16.67
1605	0.945	1.6035	163.65	16.67
1606	0.94	1.6035	163.65	16.67
1607	0.94	1.6035	163.5	16.67
1608	0.945	1.6005	163.5	16.67
1609	0.94	1.6035	163.5	16.67
1610	0.94	1.6035	163.5	16.67
1611	0.94	1.605	163.5	16.67
1612	0.94	1.602	163.5	16.67
1613	0.945	1.602	163.5	16.67
1614	0.93	1.6005	163.5	16.67
1615	0.935	1.602	163.5	16.67
1616	0.935	1.6005	163.5	16.67
1617	0.935	1.6005	163.5	16.67
1618	0.93	1.6005	163.5	16.67
1619	0.935	1.6005	163.5	16.67
1620	0.93	1.6005	163.5	16.67
1621	0.935	1.6005	163.5	16.67
1622	0.93	1.6005	163.5	16.67
1623	0.935	1.6005	163.5	16.67
1624	0.935	1.6005	163.5	16.67
1625	0.93	1.6005	163.5	16.67
1626	0.93	1.6005	163.5	16.67
1627	0.93	1.6005	163.5	16.67
1628	0.93	1.6005	163.5	16.67
1629	0.93	1.599	163.5	16.67
1630	0.935	1.602	163.5	16.67
1631	0.93	1.6005	163.5	16.67
1632	0.93	1.602	163.5	16.67
1633	0.925	1.599	163.5	16.67
1634	0.925	1.599	163.35	16.67
1635	0.925	1.5975	163.35	16.67
1636	0.925	1.5975	163.35	16.67
1637	0.92	1.5975	163.35	16.67
1638	0.925	1.5975	163.35	16.67
1639	0.925	1.599	163.35	16.67
1640	0.92	1.599	163.35	16.67
1641	0.92	1.5975	163.35	16.67
1642	0.92	1.5975	163.35	16.67
1643	0.92	1.596	163.35	16.67
1644	0.92	1.5975	163.35	16.67
1645	0.915	1.5975	163.35	16.67
1646	0.92	1.5975	163.35	16.67
1647	0.915	1.5975	163.35	16.67
1648	0.92	1.5975	163.35	16.67
1649	0.915	1.599	163.35	16.67
1650	0.92	1.5975	163.35	16.67
1651	0.915	1.5975	163.35	16.67
1652	0.915	1.5975	163.35	16.67
1653	0.915	1.596	163.35	16.67
1654	0.91	1.596	163.35	16.67
1655	0.915	1.5945	163.35	16.67
1656	0.91	1.5975	163.35	16.67
1657	0.905	1.5975	163.35	16.67
1658	0.905	1.5975	163.35	16.67
1659	0.91	1.5975	163.35	16.67
1660	0.91	1.596	163.35	16.67
1661	0.905	1.5975	163.35	16.67
1662	0.91	1.596	163.35	16.67
1663	0.905	1.5945	163.35	16.67
1664	0.9	1.5945	163.2	16.67
1665	0.905	1.5945	163.2	16.67
1666	0.9	1.593	163.2	16.67
1667	0.905	1.593	163.2	16.67
1668	0.9	1.5945	163.2	16.67
1669	0.9	1.593	163.2	16.67
1670	0.9	1.5945	163.2	16.67
1671	0.9	1.593	163.2	16.67
1672	0.905	1.593	163.2	16.67
1673	0.905	1.593	163.2	16.67
1674	0.91	1.593	163.2	16.67
1675	0.905	1.593	163.2	16.67
1676	0.915	1.5945	163.2	16.67
1677	0.91	1.593	163.2	16.67
1678	0.905	1.5945	163.2	16.67
1679	0.915	1.593	163.2	16.67
1680	0.905	1.5915	163.2	16.67
1681	0.905	1.59	163.2	16.67
1682	0.91	1.59	163.2	16.67
1683	0.91	1.5885	163.05	16.67
1684	0.905	1.59	163.05	16.67
1685	0.9	1.59	163.2	16.67
1686	0.91	1.5915	163.2	16.67
1687	0.905	1.5915	163.2	16.67
1688	0.91	1.593	163.2	16.67
1689	0.9	1.593	163.2	16.67
1690	0.9	1.59	163.2	16.67
1691	0.9	1.59	163.2	16.67
1692	0.9	1.593	163.2	16.67
1693	0.9	1.593	163.2	16.67
1694	0.895	1.59	163.05	16.67
1695	0.895	1.5885	163.05	16.67
1696	0.895	1.5885	163.05	16.67
1697	0.895	1.59	163.05	16.67
1698	0.89	1.5885	163.05	16.67
1699	0.89	1.5885	163.05	16.67
1700	0.89	1.5885	163.05	16.67
1701	0.89	1.587	163.05	16.67
1702	0.89	1.59	163.05	16.67
1703	0.89	1.59	163.05	16.67
1704	0.89	1.5885	163.05	16.67
1705	0.89	1.587	163.05	16.67
1706	0.89	1.5885	162.9	16.67
1707	0.89	1.5885	162.9	16.67
1708	0.885	1.5855	163.05	16.67
1709	0.89	1.587	163.05	16.67
1710	0.885	1.5885	162.9	16.67
1711	0.89	1.587	162.9	16.67
1712	0.885	1.587	162.9	16.67
1713	0.885	1.5855	162.9	16.67
1714	0.885	1.5855	162.9	16.67
1715	0.88	1.5855	162.9	16.67
1716	0.88	1.587	162.9	16.67
1717	0.88	1.5855	162.9	16.67
1718	0.88	1.5855	162.9	16.67
1719	0.88	1.5855	162.9	16.67
1720	0.88	1.5855	162.9	16.67
1721	0.875	1.5855	162.9	16.67
1722	0.88	1.584	162.9	16.67
1723	0.88	1.5855	162.9	16.67
1724	0.875	1.587	162.9	16.67
1725	0.875	1.5855	162.9	16.67
1726	0.875	1.587	162.9	16.67
1727	0.875	1.584	162.75	16.67
1728	0.88	1.584	162.75	16.67
1729	0.875	1.584	162.75	16.67
1730	0.875	1.584	162.75	16.67
1731	0.875	1.584	162.75	16.67
1732	0.875	1.581	162.75	16.67
1733	0.87	1.5825	162.6	16.67
1734	0.87	1.5825	162.75	16.67
1735	0.875	1.5825	162.75	16.67
1736	0.875	1.5825	162.6	16.67
1737	0.87	1.581	162.6	16.67
1738	0.875	1.5825	162.75	16.67
1739	0.87	1.581	162.6	16.67
1740	0.875	1.5825	162.6	16.67
1741	0.87	1.5825	162.6	16.67
1742	0.87	1.5825	162.6	16.67
1743	0.875	1.581	162.6	16.67
1744	0.865	1.5795	162.6	16.67
1745	0.87	1.5795	162.45	16.67
1746	0.865	1.581	162.6	16.67
1747	0.87	1.581	162.6	16.67
1748	0.87	1.5795	162.6	16.67
1749	0.865	1.5795	162.45	16.67
1750	0.86	1.578	162.45	16.67
1751	0.865	1.5795	162.45	16.67
1752	0.865	1.5795	162.45	16.67
1753	0.865	1.581	162.45	16.67
1754	0.86	1.581	162.45	16.67
1755	0.865	1.5795	162.45	16.67
1756	0.865	1.5795	162.6	16.67
1757	0.865	1.581	162.6	16.67
1758	0.865	1.581	162.6	16.67
1759	0.86	1.581	162.6	16.67
1760	0.86	1.5795	162.45	16.67
1761	0.86	1.5795	162.45	16.67
1762	0.86	1.578	162.45	16.67
1763	0.865	1.5765	162.45	16.67
1764	0.865	1.578	162.45	16.67
1765	0.86	1.5765	162.45	16.67
1766	0.86	1.5795	162.45	16.67
1767	0.86	1.5795	162.45	16.67
1768	0.855	1.578	162.45	16.67
1769	0.86	1.578	162.45	16.67
1770	0.86	1.581	162.45	16.67
1771	0.86	1.5795	162.45	16.67
1772	0.85	1.578	162.45	16.67
1773	0.855	1.5795	162.45	16.67
1774	0.86	1.5795	162.45	16.67
1775	0.855	1.5795	162.45	16.67
1776	0.855	1.578	162.45	16.67
1777	0.855	1.578	162.45	16.67
1778	0.86	1.578	162.45	16.67
1779	0.855	1.5765	162.45	16.67
1780	0.855	1.5765	162.45	16.67
1781	0.85	1.5765	162.3	16.67
1782	0.85	1.5765	162.3	16.67
1783	0.855	1.5765	162.45	16.67
1784	0.85	1.5765	162.3	16.67
1785	0.855	1.5765	162.3	16.67
1786	0.86	1.5765	162.3	16.67
1787	0.855	1.578	162.45	16.67
1788	0.855	1.578	162.45	16.67
1789	0.85	1.5765	162.45	16.67
1790	0.85	1.578	162.3	16.67
1791	0.85	1.575	162.3	16.67
1792	0.85	1.5765	162.3	16.67
1793	0.855	1.575	162.3	16.67
1794	0.86	1.5765	162.3	16.67
1795	0.85	1.575	162.3	16.67
1796	0.85	1.575	162.3	16.67
1797	0.855	1.5765	162.3	16.67
1798	0.855	1.575	162.3	16.67
1799	0.855	1.575	162.3	16.67
1800	0.855	1.5735	162.15	16.67
1801	0.85	1.5735	162.15	16.67
1802	0.85	1.5735	162.15	16.67
1803	0.85	1.5735	162.3	16.67
1804	0.85	1.575	162.3	16.67
1805	0.85	1.575	162.3	16.67
1806	0.85	1.5735	162.3	16.67
1807	0.85	1.5735	162.15	16.67
1808	0.845	1.575	162.15	16.67
1809	0.85	1.5735	162.3	16.67
1810	0.845	1.5735	162.3	16.67
1811	0.845	1.5735	162.15	16.67
1812	0.845	1.5735	162.15	16.67
1813	0.845	1.572	162.15	16.67
1814	0.845	1.5705	162.0	16.67
1815	0.84	1.572	162.0	16.67
1816	0.845	1.572	162.0	16.67
1817	0.845	1.5705	162.0	16.67
1818	0.845	1.572	162.0	16.67
1819	0.845	1.572	162.0	16.67
1820	0.845	1.5705	162.0	16.67
1821	0.84	1.5705	162.0	16.67
1822	0.84	1.5705	162.0	16.67
1823	0.84	1.5705	162.0	16.67
1824	0.84	1.569	162.0	16.67
1825	0.835	1.569	162.0	16.67
1826	0.84	1.569	162.0	16.67
1827	0.84	1.569	162.0	16.67
1828	0.84	1.569	162.0	16.67
1829	0.84	1.569	162.0	16.67
1830	0.84	1.569	162.0	16.67
1831	0.84	1.5675	161.85	16.67
1832	0.835	1.569	161.85	16.67
1833	0.84	1.5675	161.85	16.67
1834	0.84	1.569	161.85	16.67
1835	0.84	1.569	162.0	16.67
1836	0.84	1.5705	162.0	16.67
1837	0.84	1.569	161.85	16.67
1838	0.845	1.5675	161.85	16.67
1839	0.845	1.569	161.85	16.67
1840	0.84	1.569	162.0	16.67
1841	0.84	1.5675	161.85	16.67
1842	0.845	1.569	161.85	16.67
1843	0.84	1.5705	161.85	16.67
1844	0.845	1.5675	161.85	16.67
1845	0.84	1.5675	161.85	16.67
1846	0.84	1.5675	161.85	16.67
1847	0.84	1.5675	161.85	16.67
1848	0.845	1.566	161.85	16.67
1849	0.835	1.5675	161.85	16.67
1850	0.835	1.566	161.85	16.67
1851	0.84	1.566	161.85	16.67
1852	0.84	1.5645	161.7	16.67
1853	0.835	1.5645	161.7	16.67
1854	0.835	1.566	161.7	16.67
1855	0.84	1.5645	161.7	16.67
1856	0.83	1.566	161.7	16.67
1857	0.84	1.566	161.7	16.67
1858	0.84	1.566	161.7	16.67
1859	0.835	1.5645	161.7	16.67
1860	0.835	1.563	161.7	16.67
1861	0.835	1.5645	161.7	16.67
1862	0.835	1.5645	161.7	16.67
1863	0.835	1.563	161.7	16.67
1864	0.835	1.5645	161.7	16.67
1865	0.84	1.5645	161.7	16.67
1866	0.835	1.563	161.7	16.67
1867	0.835	1.563	161.55	16.67
1868	0.84	1.563	161.55	16.67
1869	0.84	1.563	161.7	16.67
1870	0.835	1.563	161.55	16.67
1871	0.835	1.563	161.55	16.67
1872	0.845	1.563	161.7	16.67
1873	0.84	1.5645	161.55	16.67
1874	0.84	1.563	161.55	16.67
1875	0.84	1.563	161.55	16.67
1876	0.845	1.563	161.7	16.67
1877	0.845	1.563	161.55	16.67
1878	0.845	1.563	161.55	16.67
1879	0.845	1.563	161.55	16.67
1880	0.84	1.5615	161.55	16.67
1881	0.84	1.5615	161.55	16.67
1882	0.845	1.5615	161.55	16.67
1883	0.84	1.563	161.55	16.67
1884	0.845	1.563	161.55	16.67
1885	0.845	1.56	161.55	16.67
1886	0.845	1.563	161.55	16.67
1887	0.845	1.5615	161.55	16.67
1888	0.85	1.5615	161.55	16.67
1889	0.845	1.5615	161.55	16.67
1890	0.845	1.5615	161.55	16.67
1891	0.845	1.5615	161.55	16.67
1892	0.845	1.5615	161.55	16.67
1893	0.85	1.5615	161.4	16.67
1894	0.85	1.5615	161.4	16.67
1895	0.845	1.5585	161.4	16.67
1896	0.85	1.56	161.4	16.67
1897	0.85	1.5585	161.4	16.67
1898	0.845	1.56	161.4	16.67
1899	0.845	1.56	161.4	16.67
1900	0.85	1.56	161.4	16.67
1901	0.855	1.5585	161.4	16.67
1902	0.855	1.56	161.4	16.67
1903	0.855	1.5615	161.4	16.67
1904	0.85	1.5615	161.4	16.67
1905	0.85	1.5585	161.4	16.67
1906	0.855	1.5585	161.4	16.67
1907	0.855	1.5585	161.4	16.67
1908	0.855	1.557	161.4	16.67
1909	0.85	1.5585	161.4	16.67
1910	0.855	1.557	161.4	16.67
1911	0.855	1.5585	161.4	16.67
1912	0.855	1.557	161.25	16.67
1913	0.665	0.789	99.6	16.67
1914	-1.995	0.0015	2.25	16.67
1915	-2.34	0.0	2.25	16.67
1916	-2.25	0.0	2.25	16.67
1917	-2.175	0.0	2.25	16.67
1918	-2.115	0.0	2.25	16.67
1919	-2.06	0.0	2.25	16.67
1920	-2.01	0.0	2.25	16.67
1921	-1.97	0.0	2.25	16.67
1922	-1.935	0.0	2.25	16.67
1923	-1.9	0.0	2.25	16.67
1924	-1.87	0.0	2.25	16.67
1925	-1.84	0.0	2.25	16.67
1926	-1.815	0.0	2.25	16.67
1927	-1.79	0.0	2.1	16.67
1928	-1.765	0.0	2.1	16.67
1929	-1.745	0.0	2.25	16.67
1930	-1.725	0.0	2.25	16.67
1931	-1.705	0.0	2.1	16.67
1932	-1.685	0.0	2.1	16.67
1933	-1.67	0.0	2.25	16.67
1934	-1.65	0.0	2.25	16.67
1935	-1.635	0.0	2.1	16.67
1936	-1.625	0.0	2.25	16.67
1937	-1.61	0.0	2.1	16.67
1938	-1.595	0.0	2.25	16.67
1939	-1.585	0.0	2.1	16.67
1940	-1.57	0.0	2.1	16.67
1941	-1.56	0.0	2.1	16.67
1942	-1.55	0.0	2.1	16.67
1943	-1.54	0.0	2.1	16.67
1944	-1.53	0.0	2.1	16.67
1945	-1.52	0.0	2.1	16.67
1946	-1.51	0.0	2.25	16.67
1947	-1.5	0.0	2.25	16.67
1948	-1.495	0.0	2.25	16.67
1949	-1.485	0.0	2.1	16.67
1950	-1.475	0.0	2.1	16.67
1951	-1.47	0.0	2.1	16.67
1952	-1.46	0.0	2.1	16.67
1953	-1.455	0.0	2.1	16.67
1954	-1.445	0.0	2.1	16.67
1955	-1.44	0.0	2.1	16.67
1956	-1.435	0.0	2.1	16.67
1957	-1.425	0.0	2.25	16.67
1958	-1.42	0.0	2.25	16.67
1959	-1.415	0.0	2.25	16.67
1960	-1.41	0.0	2.1	16.67
1961	-1.405	0.0	2.1	16.67
1962	-1.4	0.0	2.1	16.67
1963	-1.395	0.0	2.1	16.67
1964	-1.385	0.0	2.1	16.67
1965	-1.38	0.0	2.1	16.67
1966	-1.375	0.0	2.1	16.67
1967	-1.37	0.0	2.25	16.67
1968	-1.365	0.0	2.25	16.67
1969	-1.36	-0.0015	2.1	16.67
1970	-1.35	0.0	2.1	16.67
1971	-1.345	0.0	2.1	16.67
1972	-1.345	0.0	2.1	16.67
1973	-1.34	0.0	2.1	16.67
1974	-1.335	0.0	2.1	16.67
1975	-1.33	0.0	2.1	16.67
1976	-1.325	0.0	2.25	16.67
1977	-1.32	0.0	2.25	16.67
1978	-1.315	0.0	2.1	16.67
1979	-1.315	0.0	2.1	16.67
1980	-1.31	0.0	2.25	16.67
1981	-1.31	0.0	2.1	16.67
1982	-1.305	0.0	2.1	16.67
1983	-1.3	0.0	2.1	16.67
1984	-1.3	0.0	2.1	16.67
1985	-1.295	0.0	2.25	16.67
1986	-1.295	0.0	2.1	16.67
1987	-1.29	0.0	2.1	16.67
1988	-1.285	0.0	2.1	16.67
1989	-1.285	0.0	2.1	16.67
1990	-1.285	0.0	2.1	16.67
1991	-1.28	0.0	2.1	16.67
1992	-1.275	0.0	2.1	16.67
1993	-1.275	0.0	2.1	16.67
1994	-1.275	0.0	2.1	16.67
1995	-1.27	-0.0015	2.1	16.67
1996	-1.27	0.0	2.1	16.67
1997	-1.265	0.0	2.1	16.67
1998	-1.265	0.0	2.1	16.67
1999	-1.26	0.0	2.1	16.67
2000	-1.26	0.0	2.1	16.67
2001	-1.26	0.0	2.1	16.67
2002	-1.255	0.0	2.1	16.67
2003	-1.25	0.0	2.1	16.67
2004	-1.25	0.0	2.1	16.67
2005	-1.245	0.0	2.1	16.67
2006	-1.24	0.0	2.1	16.67
2007	-1.24	0.0	2.1	16.67
2008	-1.24	0.0	2.1	16.67
2009	-1.235	0.0	2.1	16.67
2010	-1.235	0.0	2.1	16.67
2011	-1.23	0.0	2.1	16.67
2012	-1.23	0.0	2.1	16.67
2013	-1.23	0.0	2.1	16.67
2014	-1.225	0.0	2.1	16.67
2015	-1.225	0.0	2.1	16.67
2016	-1.22	0.0	2.1	16.67
2017	-1.22	0.0	2.1	16.67
2018	-1.22	0.0	2.1	16.67
2019	-1.22	0.0	2.1	16.67
2020	-1.215	0.0	2.1	16.67
2021	-1.215	0.0	2.1	16.67
2022	-1.21	0.0	2.25	16.67
2023	-1.21	0.0	2.25	16.67
2024	-1.21	0.0	2.1	16.67
2025	-1.205	0.0	2.25	16.67
2026	-1.205	0.0	2.25	16.67
2027	-1.205	0.0	2.1	16.67
2028	-1.2	0.0	2.1	16.67
2029	-1.2	0.0	2.1	16.67
2030	-1.2	0.0	2.1	16.67
2031	-1.195	0.0	2.1	16.67
2032	-1.195	0.0	2.1	16.67
2033	-1.19	0.0	2.25	16.67
2034	-1.19	0.0	2.25	16.67
2035	-1.19	0.0	2.25	16.67
2036	-1.19	0.0	2.25	16.67
2037	-1.185	0.0	2.1	16.67
2038	-1.185	0.0	2.1	16.67
2039	-1.185	0.0	2.25	16.67
2040	-1.185	0.0	2.25	16.67
2041	-1.185	0.0	2.25	16.67
2042	-1.185	0.0	2.25	16.67
2043	-1.18	0.0	2.25	16.67
2044	-1.185	0.0	2.25	16.67
2045	-1.18	0.0	2.1	16.67
2046	-1.185	0.0	2.1	16.67
2047	-1.18	0.0	2.25	16.67
2048	-1.175	0.0	2.25	16.67
2049	-1.175	0.0	2.25	16.67
2050	-1.175	0.0	2.25	16.67
2051	-1.175	0.0	2.25	16.67
2052	-1.17	0.0	2.25	16.67
2053	-1.17	0.0	2.25	16.67
2054	-1.17	0.0	2.25	16.67
2055	-1.17	0.0	2.25	16.67
2056	-1.165	0.0	2.25	16.67
2057	-1.165	0.0	2.25	16.67
2058	-1.165	0.0	2.25	16.67
2059	-1.165	0.0	2.25	16.67
2060	-1.165	0.0	2.25	16.67
2061	-1.16	0.0	2.25	16.67
2062	-1.16	0.0	2.25	16.67
2063	-1.16	0.0	2.25	16.67
2064	-1.16	0.0	2.25	16.67
2065	-1.16	0.0	2.25	16.67
2066	-1.16	0.0	2.25	16.67
2067	-1.16	0.0	2.25	16.67
2068	-1.16	0.0	2.25	16.67
2069	-1.155	0.0	2.25	16.67
2070	-1.155	0.0	2.25	16.67
2071	-1.155	0.0	2.25	16.67
2072	-1.155	0.0	2.25	16.67
2073	-1.15	0.0	2.25	16.67
2074	-1.15	0.0	2.25	16.67
2075	-1.15	0.0	2.25	16.67
2076	-1.15	0.0	2.25	16.67
2077	-1.15	0.0	2.25	16.67
2078	-1.15	0.0	2.25	16.67
2079	-1.15	0.0	2.25	16.67
2080	-1.15	0.0	2.25	16.67
2081	-1.15	0.0	2.25	16.67
2082	-1.15	0.0	2.25	16.67
2083	-1.145	0.0	2.25	16.67
2084	-1.145	0.0	2.25	16.67
2085	-1.145	0.0	2.25	16.67
2086	-1.145	0.0	2.25	16.67
2087	-1.14	0.0	2.25	16.67
2088	-1.14	0.0	2.25	16.67
2089	-1.14	0.0	2.25	16.67
2090	-1.14	0.0	2.25	16.67
2091	-1.14	0.0	2.25	16.67
2092	-1.14	0.0	2.25	16.67
2093	-1.135	0.0	2.25	16.67
2094	-1.14	0.0	2.25	16.67
2095	-1.135	0.0	2.25	16.67
2096	-1.14	0.0	2.25	16.67
2097	-1.135	0.0	2.25	16.67
2098	-1.135	0.0	2.25	16.67
2099	-1.14	0.0	2.25	16.67
2100	-1.135	0.0	2.1	16.67
2101	-1.135	0.0	2.25	16.67
2102	-1.135	0.0	2.25	16.67
2103	-1.135	0.0	2.25	16.67
2104	-1.135	-0.0015	2.25	16.67
2105	-1.13	0.0	2.25	16.67
2106	-1.13	0.0	2.25	16.67
2107	-1.13	0.0	2.25	16.67
2108	-1.13	0.0	2.25	16.67
2109	-1.13	0.0	2.25	16.67
2110	-1.14	-0.0015	2.25	16.67
2111	-1.135	0.0	2.25	16.67
2112	-1.135	0.0	2.1	16.67
2113	-1.135	0.0	2.1	16.67
2114	-1.135	0.0	2.1	16.67
2115	-1.13	0.0	2.25	16.67
2116	-1.13	0.0	2.1	16.67
2117	-1.13	0.0	2.25	16.67
2118	-1.13	0.0	2.25	16.67
2119	-1.13	0.0	2.25	16.67
2120	-1.13	0.0	2.1	16.67
2121	-1.125	0.0	2.1	16.67
2122	-1.125	0.0	2.1	16.67
2123	-1.125	0.0	2.1	16.67
2124	-1.12	0.0	2.1	16.67
2125	-1.12	0.0	2.1	16.67
2126	-1.125	0.0	2.1	16.67
2127	-1.125	0.0	2.1	16.67
2128	-1.12	0.0	2.1	16.67
2129	-1.12	0.0	2.1	16.67
2130	-1.115	0.0	2.1	16.67
2131	-1.12	0.0	2.1	16.67
2132	-1.12	0.0	2.1	16.67
2133	-1.12	0.0	2.1	16.67
2134	-1.12	0.0	2.1	16.67
2135	-1.12	0.0	2.1	16.67
2136	-1.12	0.0	2.1	16.67
2137	-1.12	0.0	2.1	16.67
2138	-1.12	0.0	2.1	16.67
2139	-1.12	0.0	2.1	16.67
2140	-1.115	0.0	2.1	16.67
2141	-1.12	0.0	2.1	16.67
2142	-1.12	0.0	2.1	16.67
2143	-1.115	0.0	2.1	16.67
2144	-1.115	0.0	2.1	16.67
2145	-1.115	0.0	2.1	16.67
2146	-1.115	0.0	2.1	16.67
2147	-1.115	0.0	2.1	16.67
2148	-1.12	0.0	2.1	16.67
2149	-1.12	0.0	2.1	16.67
2150	-1.12	0.0	2.1	16.67
2151	-1.12	0.0	2.1	16.67
2152	-1.12	0.0	2.1	16.67
2153	-1.12	0.0	2.1	16.67
2154	-1.12	0.0	2.1	16.67
2155	-1.12	-0.0015	2.1	16.67
2156	-1.115	0.0	2.1	16.67
2157	-1.12	0.0	2.1	16.67
2158	-1.12	0.0	2.1	16.67
2159	-1.12	0.0	2.1	16.67
2160	-1.12	0.0	2.1	16.67
2161	-1.12	0.0	2.1	16.67
2162	-1.115	0.0	2.1	16.67
2163	-1.12	0.0	2.1	16.67
2164	-1.12	0.0	2.1	16.67
2165	-1.115	0.0	2.1	16.67
2166	-1.115	0.0	2.1	16.67
2167	-1.115	0.0	2.1	16.67
2168	-1.115	0.0	2.1	16.67
2169	-1.115	0.0	2.1	16.67
2170	-1.115	0.0	2.1	16.67
2171	-1.115	0.0	2.1	16.67
2172	-1.115	0.0	2.1	16.67
2173	-1.115	0.0	2.1	16.67
2174	-1.115	0.0	2.1	16.67
2175	-1.115	0.0	2.1	16.67
2176	-1.115	0.0	2.1	16.67
2177	-1.115	0.0	2.1	16.67
2178	-1.115	0.0	2.1	16.67
2179	-1.12	0.0	2.1	16.67
2180	-1.115	0.0	2.1	16.67
2181	-1.115	0.0	2.1	16.67
2182	-1.115	0.0	2.1	16.67
2183	-1.115	0.0	2.1	16.67
2184	-1.115	0.0	2.1	16.67
2185	-1.115	0.0	2.1	16.67
2186	-1.115	0.0	2.1	16.67
2187	-1.115	0.0	2.1	16.67
2188	-1.115	0.0	2.1	16.67
2189	-1.105	0.0	2.1	16.67
2190	-1.11	0.0	2.1	16.67
2191	-1.11	-0.0015	2.1	16.67
2192	-1.105	0.0	2.1	16.67
2193	-1.11	0.0	2.1	16.67
2194	-1.11	0.0	2.1	16.67
2195	-1.11	0.0	2.1	16.67
2196	-1.11	0.0	2.1	16.67
2197	-1.11	0.0	2.1	16.67
2198	-1.11	0.0	2.1	16.67
2199	-1.11	0.0	2.1	16.67
2200	-1.11	0.0	2.1	16.67
2201	-1.105	0.0	2.1	16.67
2202	-1.105	0.0	2.1	16.67
2203	-1.11	0.0	2.1	16.67
2204	-1.11	0.0	2.1	16.67
2205	-1.11	0.0	2.1	16.67
2206	-1.11	0.0	2.1	16.67
2207	-1.11	0.0	2.1	16.67
2208	-1.105	0.0	2.1	16.67
2209	-1.105	0.0	2.1	16.67
2210	-1.11	0.0	2.1	16.67
2211	-1.11	0.0	2.1	16.67
2212	-1.11	0.0	2.1	16.67
2213	-1.11	0.0	2.1	16.67
2214	-1.11	0.0	2.1	16.67
2215	-1.11	0.0	2.1	16.67
2216	-1.11	0.0	2.1	16.67
2217	-1.11	0.0	2.1	16.67
2218	-1.11	0.0	2.1	16.67
2219	-1.11	0.0	2.1	16.67
2220	-1.11	-0.0015	2.1	16.67
2221	-1.11	0.0	2.1	16.67
2222	-1.11	0.0	2.1	16.67
2223	-1.11	0.0	2.1	16.67
2224	-1.11	-0.0015	2.1	16.67
2225	-1.105	0.0	2.1	16.67
2226	-1.105	0.0	2.1	16.67
2227	-1.11	0.0	2.1	16.67
2228	-1.11	0.0	2.1	16.67
2229	-1.105	0.0	2.1	16.67
2230	-1.105	0.0	2.1	16.67
2231	-1.105	0.0	2.1	16.67
2232	-1.105	0.0	2.1	16.67
2233	-1.105	0.0	2.1	16.67
2234	-1.105	0.0	2.1	16.67
2235	-1.105	0.0	2.1	16.67
2236	-1.105	0.0	2.1	16.67
2237	-1.1	0.0	2.1	16.67
2238	-1.1	0.0	2.1	16.67
2239	-1.1	0.0	2.1	16.67
2240	-1.105	0.0	2.1	16.67
2241	-1.105	0.0	2.1	16.67
2242	-1.105	0.0	2.1	16.67
2243	-1.105	0.0	2.1	16.67
2244	-1.105	0.0	2.1	16.67
2245	-1.1	0.0	2.1	16.67
2246	-1.105	0.0	2.1	16.67
2247	-1.105	0.0	2.1	16.67
2248	-1.1	0.0	2.1	16.67
2249	-1.105	0.0	2.1	16.67
2250	-1.1	0.0	2.1	16.67
2251	-1.1	0.0	2.1	16.67
2252	-1.105	0.0	2.1	16.67
2253	-1.105	0.0	2.1	16.67
2254	-1.105	0.0	2.1	16.67
2255	-1.105	0.0	2.25	16.67
2256	-1.11	0.0	2.1	16.67
2257	-1.11	0.0	2.1	16.67
2258	-1.11	-0.0015	2.1	16.67
2259	-1.105	0.0	2.1	16.67
2260	-1.105	0.0	2.1	16.67
2261	-1.105	-0.0015	2.1	16.67
2262	-1.105	0.0	2.1	16.67
2263	-1.105	0.0	2.1	16.67
2264	-1.105	0.0	2.1	16.67
2265	-1.105	0.0	2.1	16.67
2266	-1.105	0.0	2.1	16.67
2267	-1.105	0.0	2.1	16.67
2268	-1.11	0.0	2.1	16.67
2269	-1.11	0.0	2.1	16.67
2270	-1.11	0.0	2.1	16.67
2271	-1.11	0.0	2.1	16.67
2272	-1.11	0.0	2.1	16.67
2273	-1.11	0.0	2.1	16.67
2274	-1.11	0.0	2.1	16.67
2275	-1.105	0.0	2.1	16.67
2276	-1.11	0.0	2.1	16.67
2277	-1.11	0.0	2.1	16.67
2278	-1.11	0.0	2.1	16.67
2279	-1.11	0.0	2.1	16.67
2280	-1.11	0.0	2.1	16.67
2281	-1.11	0.0	2.1	16.67
2282	-1.11	0.0	2.1	16.67
2283	-1.11	0.0	2.1	16.67
2284	-1.11	0.0	2.1	16.67
2285	-1.11	0.0	2.1	16.67
2286	-1.115	0.0	2.1	16.67
2287	-1.11	0.0	2.1	16.67
2288	-1.11	0.0	2.1	16.67
2289	-1.11	0.0	2.1	16.67
2290	-1.11	0.0	2.1	16.67
2291	-1.11	0.0	2.1	16.67
2292	-1.11	0.0	2.1	16.67
2293	-1.11	0.0	2.1	16.67
2294	-1.11	0.0	2.1	16.67
2295	-1.11	0.0	2.1	16.67
2296	-1.11	0.0	2.1	16.67
2297	-1.11	0.0	2.1	16.67
2298	-1.11	0.0	2.1	16.67
2299	-1.11	0.0	2.1	16.67
2300	-1.11	0.0	2.1	16.67
2301	-1.11	0.0	2.1	16.67
2302	-1.11	0.0	2.1	16.67
2303	-1.115	0.0	2.1	16.67
2304	-1.11	0.0	2.1	16.67
2305	-1.11	0.0	2.1	16.67
2306	-1.11	0.0	2.1	16.67
2307	-1.11	0.0	2.1	16.67
2308	-1.11	0.0	2.1	16.67
2309	-1.11	0.0	2.1	16.67
2310	-1.115	0.0	2.25	16.67
2311	-1.115	0.0	2.1	16.67
2312	-1.11	0.0	2.1	16.67
2313	-1.11	0.0	2.1	16.67
2314	-1.11	0.0	2.1	16.67
2315	-1.11	0.0	2.1	16.67
2316	-1.11	0.0	2.1	16.67
2317	-1.115	0.0	2.1	16.67
2318	-1.11	0.0	2.1	16.67
2319	-1.115	0.0	2.1	16.67
2320	-1.115	0.0	2.1	16.67
2321	-1.115	0.0	2.1	16.67
2322	-1.115	0.0	2.1	16.67
2323	-1.115	0.0	2.1	16.67
2324	-1.115	0.0	2.1	16.67
2325	-1.11	0.0	2.1	16.67
2326	-1.11	0.0	2.1	16.67
2327	-1.11	0.0	2.1	16.67
2328	-1.11	0.0	2.1	16.67
2329	-1.11	0.0	2.1	16.67
2330	-1.11	0.0	2.1	16.67
2331	-1.11	0.0	2.1	16.67
2332	-1.11	0.0	2.1	16.67
2333	-1.11	0.0	2.1	16.67
2334	-1.11	0.0	2.1	16.67
2335	-1.11	-0.0015	2.1	16.67
2336	-1.11	0.0	2.1	16.67
2337	-1.11	0.0	2.1	16.67
2338	-1.11	0.0	2.1	16.67
2339	-1.11	0.0	2.1	16.67
2340	-1.11	0.0	2.1	16.67
2341	-1.11	0.0	2.1	16.67
2342	-1.115	0.0	2.1	16.67
2343	-1.115	0.0	2.1	16.67
2344	-1.115	-0.0015	2.1	16.67
2345	-1.115	0.0	2.1	16.67
2346	-1.115	0.0	2.1	16.67
2347	-1.115	0.0	2.1	16.67
2348	-1.115	0.0	2.1	16.67
2349	-1.115	0.0	2.1	16.67
2350	-1.115	0.0	2.1	16.67
2351	-1.115	0.0	2.1	16.67
2352	-1.12	0.0	2.1	16.67
2353	-1.12	0.0	2.1	16.67
2354	-1.11	0.0	2.1	12.28
2355	-1.1	0.0	2.1	12.28
2356	-1.09	0.0	2.1	12.28
2357	-1.085	0.0	2.1	12.28
2358	-1.075	0.0	2.1	12.28
2359	-1.075	0.0	2.1	12.28
2360	-1.065	0.0	2.1	12.28
2361	-1.06	0.0	2.1	12.28
2362	-1.055	0.0	2.1	12.28
2363	-1.055	0.0	2.1	12.28
2364	-1.05	0.0	2.1	12.28
2365	-1.045	0.0	2.1	12.28
2366	-1.045	0.0	2.1	12.28
2367	-1.04	0.0	2.1	12.28
2368	-1.035	0.0	2.1	12.28
2369	-1.035	0.0	2.1	12.28
2370	-1.035	0.0	2.1	12.28
2371	-1.035	0.0	2.1	12.28
2372	-1.03	0.0	2.1	12.28
2373	-1.03	0.0	2.1	12.28
2374	-1.025	0.0	2.1	12.28
2375	-1.03	0.0	2.1	12.28
2376	-1.025	0.0	2.1	12.28
2377	-1.025	0.0	2.1	12.28
2378	-1.025	0.0	2.1	12.28
2379	-1.025	0.0	2.1	12.28
2380	-1.025	0.0	2.1	12.28
2381	-1.02	0.0	2.1	12.28
2382	-1.02	0.0	2.1	12.28
2383	-1.02	0.0	2.1	12.28
2384	-1.02	0.0	2.1	12.28
2385	-1.02	0.0	2.1	12.28
2386	-1.02	0.0	2.1	12.28
2387	-1.02	0.0	2.1	12.28
2388	-1.015	0.0	2.1	12.28
2389	-1.015	0.0	2.1	12.28
2390	-1.015	0.0	2.1	12.28
2391	-1.015	0.0	2.1	12.28
2392	-1.02	0.0	2.1	12.28
2393	-1.02	0.0	2.1	12.28
2394	-1.02	0.0	2.1	12.28
2395	-1.02	0.0	2.1	12.28
2396	-1.02	0.0	2.1	12.28
2397	-1.02	0.0	2.1	12.28
2398	-1.015	0.0	2.1	12.28
2399	-1.015	0.0	2.1	12.28
2400	-1.015	0.0	2.1	12.28
2401	-1.015	0.0	2.1	12.28
2402	-1.015	0.0	2.1	12.28
2403	-1.015	0.0	2.1	12.28
2404	-1.015	0.0	2.1	12.28
2405	-1.01	0.0	2.1	12.28
2406	-1.01	0.0	2.1	12.28
2407	-1.01	0.0	2.1	12.28
2408	-1.01	0.0	2.1	12.28
2409	-1.01	0.0	2.1	12.28
2410	-1.01	0.0	2.1	12.28
2411	-1.01	0.0	2.1	12.28
2412	-1.01	0.0	2.1	12.28
2413	-1.005	0.0	2.1	12.28
2414	-1.01	0.0	2.1	12.28
2415	-1.005	0.0	2.1	12.28
2416	-1.005	0.0	2.1	12.28
2417	-1.005	0.0	2.1	12.28
2418	-1.005	0.0	2.1	12.28
2419	-1.01	0.0	2.1	12.28
2420	-1.01	0.0	2.1	12.28
2421	-1.005	0.0	2.1	12.28
2422	-1.005	0.0	2.1	12.28
2423	-1.01	0.0	2.1	12.28
2424	-1.005	0.0	2.1	12.28
2425	-1.005	0.0	2.1	12.28
2426	-1.005	0.0	2.1	12.28
2427	-1.0	0.0	2.1	12.28
2428	-1.0	0.0	2.1	12.28
2429	-1.0	0.0	2.1	12.28
2430	-0.995	0.0	2.1	12.28
2431	-1.0	0.0	2.1	12.28
2432	-1.0	0.0	2.1	12.28
2433	-1.005	0.0	2.1	12.28
2434	-1.005	0.0	2.1	12.28
2435	-1.0	0.0	2.1	12.28
2436	-1.005	0.0	2.1	12.28
2437	-1.005	0.0	2.1	12.28
2438	-1.005	0.0	2.1	12.28
2439	-1.005	0.0	2.1	12.28
2440	-1.005	0.0	2.1	12.28
2441	-1.01	0.0	2.1	12.28
2442	-1.01	0.0	2.1	12.28
2443	-1.01	0.0	2.1	12.28
2444	-1.01	0.0	2.1	12.28
2445	-1.01	0.0	2.1	12.28
2446	-1.01	0.0	2.1	12.28
2447	-1.01	0.0	2.1	12.28
2448	-1.015	0.0	2.1	12.28
2449	-1.015	0.0	2.1	12.28
2450	-1.015	0.0	2.1	12.28
2451	-1.015	0.0	2.1	12.28
2452	-1.015	0.0	2.1	12.28
2453	-1.015	0.0	2.1	12.28
2454	-1.02	0.0	2.1	12.28
2455	-1.02	0.0	2.1	12.28
2456	-1.02	0.0	2.1	12.28
2457	-1.02	0.0	2.1	12.28
2458	-1.02	0.0	2.1	12.28
2459	-1.02	0.0	2.1	12.28
2460	-1.02	0.0	2.1	12.28
2461	-1.02	0.0	2.1	12.28
2462	-1.02	-0.0015	2.1	12.28
2463	-1.02	0.0	2.1	12.28
2464	-1.025	0.0	2.1	12.28
2465	-1.025	0.0	2.1	12.28
2466	-1.025	0.0	2.1	12.28
2467	-1.025	0.0	2.1	12.28
2468	-1.025	0.0	2.1	12.28
2469	-1.02	0.0	2.1	12.28
2470	-1.02	0.0	2.1	12.28
2471	-1.025	0.0	2.1	12.28
2472	-1.02	0.0	2.1	12.28
2473	-1.02	0.0	2.1	12.28
2474	-1.02	0.0	2.1	12.28
2475	-1.02	0.0	2.1	12.28
2476	-1.02	0.0	2.1	12.28
2477	-1.02	0.0	2.1	12.28
2478	-1.015	0.0	2.1	12.28
2479	-1.015	0.0	2.1	12.28
2480	-1.015	0.0	2.1	12.28
2481	-1.015	0.0	2.1	12.28
2482	-1.015	0.0	2.1	12.28
2483	-1.01	0.0	2.1	12.28
2484	-1.01	0.0	2.1	12.28
2485	-1.01	0.0	2.1	12.28
2486	-1.01	0.0	2.1	12.28
2487	-1.005	0.0	2.1	12.28
2488	-1.005	0.0	2.1	12.28
2489	-1.005	0.0	2.1	12.28
2490	-1.005	0.0	2.1	12.28
2491	-1.005	0.0	2.1	12.28
2492	-1.005	0.0	2.1	12.28
2493	-1.0	0.0	2.1	12.28
2494	-1.005	0.0	2.1	12.28
2495	-1.005	0.0	2.1	12.28
2496	-1.005	0.0	2.1	12.28
2497	-1.005	0.0	2.1	12.28
2498	-1.005	0.0	2.1	12.28
2499	-1.0	0.0	2.1	12.28
2500	-1.0	0.0	2.1	12.28
2501	-1.0	0.0	2.1	12.28
2502	-1.0	0.0	2.1	12.28
2503	-1.0	0.0	2.1	12.28
2504	-1.0	0.0	2.1	12.28
2505	-1.0	0.0	2.1	12.28
2506	-0.995	0.0	2.1	12.28
2507	-1.0	0.0	2.1	12.28
2508	-1.0	0.0	2.1	12.28
2509	-1.0	0.0	2.1	12.28
2510	-1.0	0.0	2.1	12.28
2511	-0.995	0.0	2.1	12.28
2512	-1.0	0.0	2.1	12.28
2513	-1.0	0.0	2.1	12.28
2514	-1.0	0.0	2.1	12.28
2515	-1.0	0.0	2.1	12.28
2516	-0.995	0.0	2.1	12.28
2517	-0.995	0.0	2.1	12.28
2518	-0.995	0.0	2.1	12.28
2519	-0.995	0.0	2.1	12.28
2520	-0.995	0.0	2.1	12.28
2521	-0.995	0.0	2.1	12.28
2522	-0.995	0.0	2.1	12.28
2523	-0.995	0.0	2.1	12.28
2524	-0.995	0.0	2.1	12.28
2525	-0.995	0.0	2.1	12.28
2526	-0.995	0.0	2.1	12.28
2527	-1.0	0.0	2.1	12.28
2528	-1.0	0.0	2.1	12.28
2529	-1.0	0.0	2.1	12.28
2530	-0.995	0.0	2.1	12.28
2531	-1.0	0.0	2.1	12.28
2532	-1.0	0.0	2.1	12.28
2533	-0.995	0.0	2.1	12.28
2534	-1.0	0.0	2.1	12.28
2535	-1.0	0.0	2.1	12.28
2536	-1.005	0.0	2.1	12.28
2537	-1.005	0.0	2.1	12.28
2538	-1.005	0.0	2.1	12.28
2539	-1.005	0.0	2.1	12.28
2540	-1.01	0.0	2.1	12.28
2541	-1.01	0.0	2.1	12.28
2542	-1.01	0.0	2.1	12.28
2543	-1.015	-0.0015	2.1	12.28
2544	-1.015	0.0	2.1	12.28
2545	-1.015	0.0	2.1	12.28
2546	-1.015	0.0	2.1	12.28
2547	-1.015	0.0	2.1	12.28
2548	-1.015	0.0	2.1	12.28
2549	-1.015	0.0	2.1	12.28
2550	-1.02	0.0	2.1	12.28
2551	-1.02	0.0	2.1	12.28
2552	-1.02	0.0	2.1	12.28
2553	-1.02	0.0	2.1	12.28
2554	-1.02	0.0	2.1	12.28
2555	-1.02	0.0	2.1	12.28
2556	-1.02	0.0	2.1	12.28
2557	-1.02	0.0	2.1	12.28
2558	-1.02	0.0	2.1	12.28
2559	-1.02	0.0	2.1	12.28
2560	-1.02	0.0	2.1	12.28
2561	-1.02	0.0	2.1	12.28
2562	-1.02	-0.0015	2.1	12.28
2563	-1.02	0.0	2.1	12.28
2564	-1.02	0.0	2.1	12.28
2565	-1.02	0.0	2.1	12.28
2566	-1.02	0.0	2.1	12.28
2567	-1.02	0.0	2.1	12.28
2568	-1.02	0.0	2.1	12.28
2569	-1.02	0.0	2.1	12.28
2570	-1.02	0.0	2.1	12.28
2571	-1.015	0.0	2.1	12.28
2572	-1.015	0.0	2.1	12.28
2573	-1.02	0.0	2.1	12.28
2574	-1.02	0.0	2.1	12.28
2575	-1.015	0.0	2.1	12.28
2576	-1.015	0.0	2.1	12.28
2577	-1.02	0.0	2.1	12.28
2578	-1.02	0.0	2.1	12.28
2579	-1.015	0.0	2.1	12.28
2580	-1.015	-0.0015	2.1	12.28
2581	-1.02	0.0	2.1	12.28
2582	-1.02	0.0	2.1	12.28
2583	-1.02	0.0	2.1	12.28
2584	-1.02	0.0	2.1	12.28
2585	-1.02	0.0	2.1	12.28
2586	-1.02	0.0	2.1	12.28
2587	-1.02	0.0	2.1	12.28
2588	-1.02	0.0	2.1	12.28
2589	-1.02	0.0	2.1	12.28
2590	-1.02	0.0	2.1	12.28
2591	-1.02	0.0	2.1	12.28
2592	-1.02	0.0	2.1	12.28
2593	-1.02	0.0	2.1	12.28
2594	-1.02	0.0	2.1	12.28
2595	-1.02	0.0	2.1	12.28
2596	-1.02	-0.0015	2.1	12.28
2597	-1.02	0.0	2.1	12.28
2598	-1.02	0.0	2.1	12.28
2599	-1.02	0.0	2.1	12.28
2600	-1.02	0.0	2.1	12.28
2601	-1.02	0.0	2.1	12.28
2602	-1.02	0.0	2.1	12.28
2603	-1.02	0.0	2.1	12.28
2604	-1.02	0.0	2.1	12.28
2605	-1.02	0.0	2.1	12.28
2606	-1.02	0.0	2.1	12.28
2607	-1.02	0.0	2.1	12.28
2608	-1.02	0.0	2.1	12.28
2609	-1.02	0.0	2.1	12.28
2610	-1.025	0.0	2.1	12.28
2611	-1.025	0.0	2.1	12.28
2612	-1.025	0.0	2.1	12.28
2613	-1.025	0.0	2.1	12.28
2614	-1.03	0.0	2.1	12.28
2615	-1.03	0.0	2.1	12.28
2616	-1.03	0.0	2.1	12.28
2617	-1.03	0.0	2.1	12.28
2618	-1.035	0.0	2.1	12.28
2619	-1.035	0.0	2.1	12.28
2620	-1.035	0.0	2.1	12.28
2621	-1.035	0.0	2.1	12.28
2622	-1.04	0.0	2.1	12.28
2623	-1.04	0.0	2.1	12.28
2624	-1.04	0.0	2.1	12.28
2625	-1.04	0.0	2.1	12.28
2626	-1.04	0.0	2.1	12.28
2627	-1.04	0.0	2.1	12.28
2628	-1.04	0.0	2.1	12.28
2629	-1.04	0.0	2.1	12.28
2630	-1.04	0.0	2.1	12.28
2631	-1.04	0.0	2.1	12.28
2632	-1.04	0.0	2.1	12.28
2633	-1.04	0.0	2.1	12.28
2634	-1.04	0.0	2.1	12.28
2635	-1.04	0.0	2.1	12.28
2636	-1.04	0.0	2.1	12.28
2637	-1.045	0.0	2.1	12.28
2638	-1.045	0.0	2.1	12.28
2639	-1.045	0.0	2.1	12.28
2640	-1.045	0.0	2.1	12.28
2641	-1.045	0.0	2.1	12.28
2642	-1.04	0.0	2.1	12.28
2643	-1.045	0.0	2.1	12.28
2644	-1.04	0.0	2.1	12.28
2645	-1.04	0.0	2.1	12.28
2646	-1.04	0.0	2.1	12.28
2647	-1.04	-0.0015	2.1	12.28
2648	-1.04	0.0	2.1	12.28
2649	-1.04	0.0	2.1	12.28
2650	-1.045	0.0	2.1	12.28
2651	-1.045	0.0	2.1	12.28
2652	-1.045	0.0	2.1	12.28
2653	-1.045	0.0	2.1	12.28
2654	-1.045	0.0	2.1	12.28
2655	-1.04	0.0	2.1	12.28
2656	-1.045	0.0	2.1	12.28
2657	-1.045	0.0	2.1	12.28
2658	-1.045	0.0	2.1	12.28
2659	-1.045	0.0	2.1	12.28
2660	-1.045	0.0	2.1	12.28
2661	-1.045	0.0	2.1	12.28
2662	-1.05	0.0	2.1	12.28
2663	-1.045	0.0	2.1	12.28
2664	-1.045	0.0	2.1	12.28
2665	-1.045	0.0	2.1	12.28
2666	-1.045	0.0	2.1	12.28
2667	-1.045	0.0	2.1	12.28
2668	-1.05	0.0	2.1	12.28
2669	-1.05	0.0	2.1	12.28
2670	-1.05	0.0	2.1	12.28
2671	-1.05	0.0	2.1	12.28
2672	-1.05	0.0	2.1	12.28
2673	-1.05	0.0	2.1	12.28
2674	-1.05	0.0	2.1	12.28
2675	-1.045	0.0	2.1	12.28
2676	-1.045	0.0	2.1	12.28
2677	-1.045	0.0	2.1	12.28
2678	-1.045	0.0	2.1	12.28
2679	-1.045	0.0	2.1	12.28
2680	-1.05	0.0	2.1	12.28
2681	-1.045	0.0	2.1	12.28
2682	-1.045	0.0	2.1	12.28
2683	-1.045	0.0	2.1	12.28
2684	-1.045	0.0	2.1	12.28
2685	-1.045	0.0	2.1	12.28
2686	-1.045	0.0	2.1	12.28
2687	-1.045	0.0	2.1	12.28
2688	-1.045	0.0	2.1	12.28
2689	-1.05	0.0	2.1	12.28
2690	-1.05	0.0	2.1	12.28
2691	-1.055	0.0	2.1	12.28
2692	-1.055	0.0	2.1	12.28
2693	-1.055	0.0	2.1	12.28
2694	-1.055	0.0	2.1	12.28
2695	-1.06	0.0	2.1	12.28
2696	-1.06	0.0	2.1	12.28
2697	-1.06	0.0	2.1	12.28
2698	-1.055	0.0	2.1	12.28
2699	-1.06	0.0	2.1	12.28
2700	-1.06	0.0	2.1	12.28
2701	-1.06	0.0	2.1	12.28
2702	-1.06	0.0	2.1	12.28
2703	-1.06	0.0	2.1	12.28
2704	-1.06	0.0	2.1	12.28
2705	-1.06	0.0	2.1	12.28
2706	-1.06	0.0	2.1	12.28
2707	-1.06	0.0	2.1	12.28
2708	-1.06	0.0	2.1	12.28
2709	-1.06	0.0	2.1	12.28
2710	-1.06	0.0	2.1	12.28
2711	-1.06	0.0	2.1	12.28
2712	-1.06	0.0	2.1	12.28
2713	-1.06	0.0	2.1	12.28
2714	-1.065	0.0	2.1	12.28
2715	-1.065	0.0	2.1	12.28
2716	-1.07	0.0	2.1	12.28
2717	-1.065	0.0	2.1	12.28
2718	-1.07	0.0	2.1	12.28
2719	-1.065	0.0	2.1	12.28
2720	-1.065	0.0	2.1	12.28
2721	-1.065	0.0	2.1	12.28
2722	-1.065	0.0	2.1	12.28
2723	-1.065	0.0	2.1	12.28
2724	-1.06	0.0	2.1	12.28
2725	-1.065	0.0	2.1	12.28
2726	-1.06	0.0	2.1	12.28
2727	-1.06	0.0	2.1	12.28
2728	-1.06	0.0	2.1	12.28
2729	-1.06	0.0	2.1	12.28
2730	-1.06	0.0	2.1	12.28
2731	-1.06	0.0	2.1	12.28
2732	-1.06	0.0	2.1	12.28
2733	-1.06	0.0	2.1	12.28
2734	-1.06	0.0	2.1	12.28
2735	-1.055	0.0	2.1	12.28
2736	-1.055	-0.0015	2.1	12.28
2737	-1.055	0.0	2.1	12.28
2738	-1.055	0.0	2.1	12.28
2739	-1.055	0.0	2.1	12.28
2740	-1.055	0.0	2.1	12.28
2741	-1.055	0.0	2.1	12.28
2742	-1.055	0.0	2.1	12.28
2743	-1.06	0.0	2.1	12.28
2744	-1.06	0.0	2.1	12.28
2745	-1.06	0.0	2.1	12.28
2746	-1.06	0.0	2.1	12.28
2747	-1.06	0.0	2.1	12.28
2748	-1.06	0.0	2.1	12.28
2749	-1.06	0.0	2.1	12.28
2750	-1.06	0.0	2.1	12.28
2751	-1.055	0.0	2.1	12.28
2752	-1.06	0.0	2.1	12.28
2753	-1.06	0.0	2.1	12.28
2754	-1.06	0.0	2.1	12.28
2755	-1.06	0.0	2.1	12.28
2756	-1.06	0.0	2.1	12.28
2757	-1.06	0.0	2.1	12.28
2758	-1.06	0.0	2.1	12.28
2759	-1.06	0.0	2.1	12.28
2760	-1.065	0.0	2.1	12.28
2761	-1.065	0.0	2.1	12.28
2762	-1.06	0.0	2.1	12.28
2763	-1.065	0.0	2.1	12.28
2764	-1.065	-0.0015	2.1	12.28
2765	-1.065	0.0	2.1	12.28
2766	-1.06	0.0	2.1	12.28
2767	-1.06	0.0	2.1	12.28
2768	-1.06	0.0	2.1	12.28
2769	-1.06	0.0	2.1	12.28
2770	-1.06	0.0	2.1	12.28
2771	-1.055	0.0	2.1	12.28
2772	-1.06	0.0	2.1	12.28
2773	-1.06	0.0	2.1	12.28
2774	-1.06	0.0	2.1	12.28
2775	-1.055	0.0	2.1	12.28
2776	-1.06	0.0	2.1	12.28
2777	-1.06	0.0	2.1	12.28
2778	-1.065	0.0	2.1	12.28
2779	-1.06	0.0	2.1	12.28
2780	-1.06	0.0	2.1	12.28
2781	-1.06	0.0	2.1	12.28
2782	-1.06	-0.0015	2.1	12.28
2783	-1.06	0.0	2.1	12.28
2784	-1.065	0.0	2.1	12.28
2785	-1.06	0.0	2.1	12.28
2786	-1.06	0.0	2.1	12.28
2787	-1.06	0.0	2.1	12.28
2788	-1.06	0.0	2.1	12.28
2789	-1.06	0.0	2.1	12.28
2790	-1.055	0.0	2.1	12.28
2791	-1.055	0.0	2.1	12.28
2792	-1.055	0.0	2.1	12.28
2793	-1.06	0.0	2.1	12.28
2794	-1.06	0.0	2.1	12.28
2795	-1.06	0.0	2.1	12.28
2796	-1.06	0.0	2.1	12.28
2797	-1.055	0.0	2.1	12.28
2798	-1.055	0.0	2.1	12.28
2799	-1.06	0.0	2.1	12.28
2800	-1.06	0.0	2.1	12.28
2801	-1.06	0.0	2.1	12.28
2802	-1.06	0.0	2.1	12.28
2803	-1.055	0.0	2.1	12.28
2804	-1.055	0.0	2.1	12.28
2805	-1.06	0.0	2.1	12.28
2806	-1.055	0.0	2.1	12.28
2807	-1.055	0.0	2.1	12.28
2808	-1.055	0.0	2.1	12.28
2809	-1.055	0.0	2.1	12.28
2810	-1.055	0.0	2.1	12.28
2811	-1.055	0.0	2.1	12.28
2812	-1.06	0.0	2.1	12.28
2813	-1.055	0.0	2.1	12.28
2814	-1.055	0.0	2.1	12.28
2815	-1.055	0.0	2.1	12.28
2816	-1.06	0.0	2.1	12.28
2817	-1.055	0.0	2.1	12.28
2818	-1.055	0.0	2.1	12.28
2819	-1.055	0.0	2.1	12.28
2820	-1.06	0.0	2.1	12.28
2821	-1.06	0.0	2.1	12.28
2822	-1.06	0.0	2.1	12.28
2823	-1.06	0.0	2.1	12.28
2824	-1.065	0.0	2.1	12.28
2825	-1.065	0.0	2.1	12.28
2826	-1.07	0.0	2.1	12.28
2827	-1.07	0.0	2.1	12.28
2828	-1.07	0.0	2.1	12.28
2829	-1.07	0.0	2.1	12.28
2830	-1.07	0.0	2.1	12.28
2831	-1.07	0.0	2.1	12.28
2832	-1.07	0.0	2.1	12.28
2833	-1.07	0.0	2.1	12.28
2834	-1.075	0.0	2.1	12.28
2835	-1.075	0.0	2.1	12.28
2836	-1.075	0.0	2.1	12.28
2837	-1.075	0.0	2.1	12.28
2838	-1.075	0.0	2.1	12.28
2839	-1.07	0.0	2.1	12.28
2840	-1.07	0.0	2.1	12.28
2841	-1.075	0.0	2.1	12.28
2842	-1.075	0.0	2.1	12.28
2843	-1.075	0.0	2.1	12.28
2844	-1.07	0.0	2.1	12.28
2845	-1.07	0.0	2.1	12.28
2846	-1.07	0.0	2.1	12.28
2847	-1.075	0.0	2.1	12.28
2848	-1.07	0.0	2.1	12.28
2849	-1.07	0.0	2.1	12.28
2850	-1.07	0.0	2.1	12.28
2851	-1.07	0.0	2.1	12.28
2852	-1.07	0.0	2.1	12.28
2853	-1.07	0.0	2.1	12.28
2854	-1.07	0.0	2.1	12.28
2855	-1.07	0.0	2.1	12.28
2856	-1.07	0.0	2.1	12.28
2857	-1.07	0.0	2.1	12.28
2858	-1.07	0.0	2.1	12.28
2859	-1.07	0.0	2.1	12.28
2860	-1.07	0.0	2.1	12.28
2861	-1.07	0.0	2.1	12.28
2862	-1.07	0.0	2.1	12.28
2863	-1.07	0.0	2.1	12.28
2864	-1.075	0.0	2.1	12.28
2865	-1.075	0.0	2.1	12.28
2866	-1.075	0.0	2.1	12.28
2867	-1.07	0.0	2.1	12.28
2868	-1.075	0.0	2.1	12.28
2869	-1.075	0.0	2.1	12.28
2870	-1.08	0.0	2.1	12.28
2871	-1.08	0.0	2.1	12.28
2872	-1.08	0.0	2.1	12.28
2873	-1.085	0.0	2.1	12.28
2874	-1.085	0.0	2.1	12.28
2875	-1.085	0.0	2.1	12.28
2876	-1.085	0.0	2.1	12.28
2877	-1.09	0.0	2.1	12.28
2878	-1.09	0.0	2.1	12.28
2879	-1.09	0.0	2.1	12.28
2880	-1.09	0.0	2.1	12.28
2881	-1.095	0.0	2.1	12.28
2882	-1.095	0.0	2.1	12.28
2883	-1.095	0.0	2.1	12.28
2884	-1.095	0.0	2.1	12.28
2885	-1.095	0.0	2.1	12.28
2886	-1.09	0.0	2.1	12.28
2887	-1.09	0.0	2.1	12.28
2888	-1.09	0.0	2.1	12.28
2889	-1.085	0.0	2.1	12.28
2890	-1.085	0.0	2.1	12.28
2891	-1.085	0.0	2.1	12.28
2892	-1.08	0.0	2.1	12.28
2893	-1.08	0.0	2.1	12.28
2894	-1.08	0.0	2.1	12.28
2895	-1.08	0.0	2.1	12.28
2896	-1.08	0.0	2.1	12.28
2897	-1.075	0.0	2.1	12.28
2898	-1.075	0.0	2.1	12.28
2899	-1.075	0.0	2.1	12.28
2900	-1.075	0.0	2.1	12.28
2901	-1.075	0.0	2.1	12.28
2902	-1.075	0.0	2.1	12.28
2903	-1.075	0.0	2.1	12.28
2904	-1.075	0.0	2.1	12.28
2905	-1.075	0.0	2.1	12.28
2906	-1.07	0.0	2.1	12.28
2907	-1.075	0.0	2.1	12.28
2908	-1.075	0.0	2.1	12.28
2909	-1.075	0.0	2.1	12.28
2910	-1.07	0.0	2.1	12.28
2911	-1.075	0.0	2.1	12.28
2912	-1.075	0.0	2.1	12.28
2913	-1.075	0.0	2.1	12.28
2914	-1.075	0.0	2.1	12.28
2915	-1.075	-0.0015	2.1	12.28
2916	-1.075	-0.0015	2.1	12.28
2917	-1.075	0.0	2.1	12.28
2918	-1.08	0.0	2.1	12.28
2919	-1.08	0.0	2.1	12.28
2920	-1.08	0.0	2.1	12.28
2921	-1.08	0.0	2.1	12.28
2922	-1.08	0.0	2.1	12.28
2923	-1.08	0.0	2.1	12.28
2924	-1.08	0.0	2.1	12.28
2925	-1.08	0.0	2.1	12.28
2926	-1.08	0.0	2.1	12.28
2927	-1.075	0.0	2.1	12.28
2928	-1.08	0.0	2.1	12.28
2929	-1.08	0.0	2.1	12.28
2930	-1.075	-0.0015	2.1	12.28
2931	-1.08	0.0	2.1	12.28
2932	-1.08	0.0	2.1	12.28
2933	-1.08	0.0	2.1	12.28
2934	-1.08	0.0	2.1	12.28
2935	-1.08	0.0	2.1	12.28
2936	-1.08	0.0	2.1	12.28
2937	-1.08	0.0	2.1	12.28
2938	-1.08	-0.0015	2.1	12.28
2939	-1.085	0.0	2.1	12.28
2940	-1.085	0.0	2.1	12.28
2941	-1.085	0.0	2.1	12.28
2942	-1.085	0.0	2.1	12.28
2943	-1.085	0.0	2.1	12.28
2944	-1.085	0.0	2.1	12.28
2945	-1.085	0.0	2.1	12.28
2946	-1.085	0.0	2.1	12.28
2947	-1.085	0.0	2.1	12.28
2948	-1.085	0.0	2.1	12.28
2949	-1.085	0.0	2.1	12.28
2950	-1.085	0.0	2.1	12.28
2951	-1.085	0.0	2.1	12.28
2952	-1.085	0.0	2.1	12.28
2953	-1.085	0.0	2.1	12.28
2954	-1.085	0.0	2.1	12.28
2955	-1.085	0.0	2.1	12.28
2956	-1.085	0.0	2.1	12.28
2957	-1.08	0.0	2.1	12.28
2958	-1.08	-0.0015	2.1	12.28
2959	-1.08	0.0	2.1	12.28
2960	-1.08	0.0	2.1	12.28
2961	-1.08	0.0	2.1	12.28
2962	-1.08	0.0	2.1	12.28
2963	-1.08	0.0	2.1	12.28
2964	-1.08	0.0	2.1	12.28
2965	-1.08	0.0	2.1	12.28
2966	-1.08	0.0	2.1	12.28
2967	-1.075	0.0	2.1	12.28
2968	-1.08	0.0	2.1	12.28
2969	-1.08	0.0	2.1	12.28
2970	-1.08	0.0	2.1	12.28
2971	-1.08	0.0	2.1	12.28
2972	-1.08	0.0	2.1	12.28
2973	-1.085	0.0	2.1	12.28
2974	-1.085	0.0	2.1	12.28
2975	-1.085	0.0	2.1	12.28
2976	-1.085	0.0	2.1	12.28
2977	-1.085	0.0	2.1	12.28
2978	-1.08	0.0	2.1	12.28
2979	-1.08	0.0	2.1	12.28
2980	-1.08	0.0	2.1	12.28
2981	-1.075	0.0	2.1	12.28
2982	-1.075	0.0	2.1	12.28
2983	-1.075	0.0	2.1	12.28
2984	-1.075	0.0	2.1	12.28
2985	-1.075	0.0	2.1	12.28
2986	-1.08	0.0	2.1	12.28
2987	-1.08	0.0	2.1	12.28
2988	-1.08	0.0	2.1	12.28
2989	-1.08	0.0	2.1	12.28
2990	-1.08	0.0	2.1	12.28
2991	-1.08	0.0	2.1	12.28
2992	-1.08	0.0	2.1	12.28
2993	-1.08	0.0	2.1	12.28
2994	-1.075	0.0	2.1	12.28
2995	-1.08	0.0	2.1	12.28
2996	-1.08	0.0	2.1	12.28
2997	-1.08	0.0	2.1	12.28
2998	-1.08	0.0	2.1	12.28
2999	-1.085	0.0	2.1	12.28
3000	-1.085	0.0	2.1	12.28
3001	-1.085	0.0	2.1	12.28
3002	-1.085	0.0	2.1	12.28
3003	-1.09	0.0	2.1	12.28
3004	-1.09	0.0	2.1	12.28
3005	-1.09	0.0	2.1	12.28
3006	-1.095	0.0	2.1	12.28
3007	-1.095	0.0	2.1	12.28
3008	-1.1	0.0	2.1	12.28
3009	-1.1	0.0	2.1	12.28
3010	-1.105	0.0	2.1	12.28
3011	-1.105	0.0	2.1	12.28
3012	-1.105	0.0	2.1	12.28
3013	-1.11	0.0	2.1	12.28
3014	-1.11	0.0	2.1	12.28
3015	-1.105	0.0	2.1	12.28
3016	-1.105	0.0	2.1	12.28
3017	-1.105	0.0	2.1	12.28
3018	-1.105	0.0	2.1	12.28
3019	-1.105	0.0	2.1	12.28
3020	-1.105	0.0	2.1	12.28
3021	-1.105	0.0	2.1	12.28
3022	-1.105	0.0	2.1	12.28
3023	-1.105	0.0	2.1	12.28
3024	-1.105	0.0	2.1	12.28
3025	-1.105	0.0	2.1	12.28
3026	-1.105	0.0	2.1	12.28
3027	-1.105	0.0	2.1	12.28
3028	-1.1	0.0	2.1	12.28
3029	-1.1	0.0	2.1	12.28
3030	-1.105	0.0	2.1	12.28
3031	-1.105	0.0	2.1	12.28
3032	-1.105	0.0	2.1	12.28
3033	-1.105	0.0	2.1	12.28
3034	-1.11	0.0	2.1	12.28
3035	-1.11	0.0	2.1	12.28
3036	-1.11	0.0	2.1	12.28
3037	-1.115	0.0	2.1	12.28
3038	-1.115	0.0	2.1	12.28
3039	-1.115	-0.0015	2.1	12.28
3040	-1.115	0.0	2.1	12.28
3041	-1.115	0.0	2.1	12.28
3042	-1.115	0.0	2.1	12.28
3043	-1.115	-0.0015	2.1	12.28
3044	-1.115	0.0	2.1	12.28
3045	-1.12	0.0	2.1	12.28
3046	-1.12	0.0	2.1	12.28
3047	-1.12	0.0	2.1	12.28
3048	-1.12	0.0	2.1	12.28
3049	-1.12	0.0	2.1	12.28
3050	-1.12	-0.0015	2.1	12.28
3051	-1.125	0.0	2.1	12.28
3052	-1.125	0.0	2.1	12.28
3053	-1.125	0.0	2.1	12.28
3054	-1.13	0.0	2.1	12.28
3055	-1.125	0.0	2.1	12.28
3056	-1.125	0.0	2.1	12.28
3057	-1.125	0.0	2.1	12.28
3058	-1.125	0.0	2.1	12.28
3059	-1.13	0.0	2.1	12.28
3060	-1.13	0.0	2.1	12.28
3061	-1.125	0.0	2.1	12.28
3062	-1.125	0.0	2.1	12.28
3063	-1.125	0.0	2.1	12.28
3064	-1.125	0.0	2.1	12.28
3065	-1.125	0.0	2.1	12.28
3066	-1.12	0.0	2.1	12.28
3067	-1.125	-0.0015	2.1	12.28
3068	-1.125	0.0	2.1	12.28
3069	-1.125	0.0	2.1	12.28
3070	-1.125	0.0	2.1	12.28
3071	-1.125	0.0	2.1	12.28
3072	-1.125	0.0	2.1	12.28
3073	-1.125	0.0	2.1	12.28
3074	-0.795	0.0	2.1	12.28
3075	-0.795	0.3435	49.95	12.28
3076	1.54	1.395	149.25	12.28
3077	2.195	1.677	167.1	12.28
3078	2.05	1.677	167.1	12.28
3079	1.95	1.6785	167.1	12.28
3080	1.87	1.6785	167.1	12.28
3081	1.8	1.677	167.1	12.28
3082	1.735	1.674	166.95	12.28
3083	1.685	1.677	166.95	12.28
3084	1.63	1.6755	166.95	12.28
3085	1.585	1.677	166.95	12.28
3086	1.545	1.6755	166.95	12.28
3087	1.51	1.6755	166.95	12.28
3088	1.47	1.6755	166.95	12.28
3089	1.435	1.6755	166.95	12.28
3090	1.41	1.677	166.95	12.28
3091	1.38	1.677	166.95	12.28
3092	1.355	1.6755	166.95	12.28
3093	1.33	1.674	166.95	12.28
3094	1.305	1.6725	166.95	12.28
3095	1.28	1.674	166.95	12.28
3096	1.26	1.674	166.8	12.28
3097	1.235	1.6725	166.8	12.28
3098	1.215	1.674	166.8	12.28
3099	1.195	1.6725	166.8	12.28
3100	1.175	1.671	166.8	12.28
3101	1.16	1.6725	166.8	12.28
3102	1.145	1.6725	166.8	12.28
3103	1.135	1.6725	166.8	12.28
3104	1.115	1.6695	166.8	12.28
3105	1.105	1.6695	166.65	12.28
3106	1.09	1.6695	166.65	12.28
3107	1.08	1.6695	166.65	12.28
3108	1.075	1.671	166.8	12.28
3109	1.065	1.671	166.65	12.28
3110	1.045	1.668	166.65	12.28
3111	1.04	1.668	166.65	12.28
3112	1.03	1.6695	166.65	12.28
3113	1.02	1.6665	166.65	12.28
3114	1.02	1.6695	166.65	12.28
3115	1.01	1.668	166.65	12.28
3116	1.005	1.668	166.65	12.28
3117	1.0	1.6665	166.5	12.28
3118	0.985	1.6665	166.5	12.28
3119	0.975	1.668	166.5	12.28
3120	0.975	1.6665	166.5	12.28
3121	0.97	1.6635	166.5	12.28
3122	0.955	1.6635	166.35	12.28
3123	0.95	1.6635	166.35	12.28
3124	0.945	1.662	166.35	12.28
3125	0.94	1.6635	166.35	12.28
3126	0.93	1.662	166.35	12.28
3127	0.925	1.6635	166.35	12.28
3128	0.92	1.662	166.35	12.28
3129	0.915	1.662	166.35	12.28
3130	0.91	1.662	166.35	12.28
3131	0.905	1.6605	166.35	12.28
3132	0.895	1.662	166.35	12.28
3133	0.885	1.662	166.35	12.28
3134	0.885	1.6605	166.35	12.28
3135	0.88	1.662	166.35	12.28
3136	0.875	1.659	166.35	12.28
3137	0.865	1.6605	166.2	12.28
3138	0.86	1.659	166.2	12.28
3139	0.855	1.662	166.2	12.28
3140	0.845	1.6575	166.2	12.28
3141	0.84	1.659	166.2	12.28
3142	0.84	1.659	166.2	12.28
3143	0.835	1.6575	166.05	12.28
3144	0.83	1.6575	166.05	12.28
3145	0.83	1.6575	166.2	12.28
3146	0.83	1.659	166.2	12.28
3147	0.825	1.6575	166.05	12.28
3148	0.82	1.6575	166.05	12.28
3149	0.82	1.6575	166.05	12.28
3150	0.82	1.659	166.2	12.28
3151	0.815	1.6575	166.2	12.28
3152	0.815	1.6545	166.05	12.28
3153	0.815	1.656	166.05	12.28
3154	0.805	1.656	166.05	12.28
3155	0.805	1.6545	166.05	12.28
3156	0.805	1.6545	166.05	12.28
3157	0.805	1.653	165.9	12.28
3158	0.8	1.656	165.9	12.28
3159	0.8	1.653	166.05	12.28
3160	0.805	1.6545	166.05	12.28
3161	0.795	1.6545	166.05	12.28
3162	0.79	1.653	165.9	12.28
3163	0.79	1.653	165.9	12.28
3164	0.795	1.653	165.9	12.28
3165	0.79	1.653	165.9	12.28
3166	0.79	1.6515	165.9	12.28
3167	0.785	1.653	165.9	12.28
3168	0.79	1.6515	165.9	12.28
3169	0.785	1.65	165.9	12.28
3170	0.785	1.65	165.75	12.28
3171	0.78	1.65	165.75	12.28
3172	0.775	1.65	165.75	12.28
3173	0.775	1.65	165.75	12.28
3174	0.77	1.65	165.75	12.28
3175	0.765	1.6515	165.75	12.28
3176	0.765	1.6515	165.75	12.28
3177	0.765	1.6515	165.75	12.28
3178	0.76	1.65	165.75	12.28
3179	0.755	1.65	165.75	12.28
3180	0.76	1.6485	165.75	12.28
3181	0.755	1.6455	165.6	12.28
3182	0.75	1.6485	165.6	12.28
3183	0.75	1.647	165.6	12.28
3184	0.745	1.6455	165.6	12.28
3185	0.75	1.647	165.6	12.28
3186	0.74	1.6455	165.6	12.28
3187	0.745	1.647	165.6	12.28
3188	0.735	1.644	165.6	12.28
3189	0.735	1.644	165.6	12.28
3190	0.735	1.644	165.45	12.28
3191	0.735	1.644	165.6	12.28
3192	0.735	1.6425	165.45	12.28
3193	0.73	1.6425	165.45	12.28
3194	0.73	1.641	165.45	12.28
3195	0.73	1.6425	165.45	12.28
3196	0.725	1.641	165.45	12.28
3197	0.725	1.641	165.45	12.28
3198	0.72	1.6425	165.45	12.28
3199	0.725	1.644	165.45	12.28
3200	0.72	1.641	165.45	12.28
3201	0.715	1.641	165.45	12.28
3202	0.72	1.641	165.45	12.28
3203	0.715	1.6395	165.3	12.28
3204	0.715	1.6425	165.3	12.28
3205	0.71	1.6395	165.3	12.28
3206	0.705	1.6395	165.3	12.28
3207	0.705	1.638	165.3	12.28
3208	0.705	1.6395	165.3	12.28
3209	0.705	1.6395	165.3	12.28
3210	0.705	1.6395	165.3	12.28
3211	0.705	1.641	165.3	12.28
3212	0.695	1.6395	165.3	12.28
3213	0.7	1.6395	165.3	12.28
3214	0.695	1.638	165.3	12.28
3215	0.695	1.6365	165.3	12.28
3216	0.695	1.638	165.15	12.28
3217	0.69	1.6365	165.15	12.28
3218	0.69	1.6365	165.15	12.28
3219	0.69	1.635	165.15	12.28
3220	0.685	1.638	165.15	12.28
3221	0.68	1.6365	165.15	12.28
3222	0.68	1.6365	165.15	12.28
3223	0.68	1.6365	165.15	12.28
3224	0.68	1.6365	165.15	12.28
3225	0.68	1.638	165.15	12.28
3226	0.68	1.6365	165.15	12.28
3227	0.68	1.6365	165.15	12.28
3228	0.68	1.635	165.15	12.28
3229	0.68	1.6335	165.15	12.28
3230	0.68	1.635	165.15	12.28
3231	0.68	1.6365	165.15	12.28
3232	0.68	1.6365	165.15	12.28
3233	0.68	1.6365	165.15	12.28
3234	0.68	1.635	165.15	12.28
3235	0.68	1.6365	165.15	12.28
3236	0.68	1.635	165.15	12.28
3237	0.675	1.6335	165.0	12.28
3238	0.675	1.635	165.0	12.28
3239	0.67	1.635	165.0	12.28
3240	0.67	1.632	165.0	12.28
3241	0.67	1.6335	165.0	12.28
3242	0.67	1.632	165.0	12.28
3243	0.67	1.6335	164.85	12.28
3244	0.665	1.632	164.85	12.28
3245	0.67	1.6305	164.85	12.28
3246	0.66	1.6305	164.85	12.28
3247	0.665	1.632	164.85	12.28
3248	0.665	1.6305	164.85	12.28
3249	0.665	1.632	164.85	12.28
3250	0.66	1.6305	164.85	12.28
3251	0.66	1.6305	164.85	12.28
3252	0.66	1.6305	164.85	12.28
3253	0.655	1.6305	164.85	12.28
3254	0.66	1.632	164.85	12.28
3255	0.655	1.629	164.7	12.28
3256	0.655	1.6305	164.7	12.28
3257	0.65	1.6275	164.7	12.28
3258	0.645	1.629	164.7	12.28
3259	0.645	1.6275	164.7	12.28
3260	0.645	1.6275	164.7	12.28
3261	0.645	1.6275	164.7	12.28
3262	0.64	1.6275	164.7	12.28
3263	0.645	1.6275	164.7	12.28
3264	0.645	1.6275	164.7	12.28
3265	0.645	1.6275	164.7	12.28
3266	0.645	1.626	164.7	12.28
3267	0.64	1.626	164.7	12.28
3268	0.645	1.626	164.55	12.28
3269	0.64	1.626	164.55	12.28
3270	0.645	1.623	164.55	12.28
3271	0.64	1.6245	164.55	12.28
3272	0.64	1.626	164.55	12.28
3273	0.635	1.6245	164.55	12.28
3274	0.64	1.6245	164.55	12.28
3275	0.64	1.626	164.55	12.28
3276	0.635	1.623	164.55	12.28
3277	0.635	1.623	164.4	12.28
3278	0.635	1.6245	164.4	12.28
3279	0.625	1.6215	164.4	12.28
3280	0.63	1.623	164.4	12.28
3281	0.63	1.6215	164.4	12.28
3282	0.625	1.6215	164.4	12.28
3283	0.63	1.6215	164.4	12.28
3284	0.63	1.623	164.4	12.28
3285	0.63	1.6215	164.4	12.28
3286	0.625	1.6215	164.4	12.28
3287	0.63	1.623	164.4	12.28
3288	0.625	1.6215	164.4	12.28
3289	0.62	1.623	164.4	12.28
3290	0.62	1.6215	164.4	12.28
3291	0.62	1.6185	164.4	12.28
3292	0.615	1.62	164.25	12.28
3293	0.62	1.62	164.25	12.28
3294	0.62	1.62	164.25	12.28
3295	0.615	1.6185	164.25	12.28
3296	0.61	1.6185	164.25	12.28
3297	0.61	1.6185	164.25	12.28
3298	0.61	1.6185	164.25	12.28
3299	0.61	1.6185	164.25	12.28
3300	0.6	1.6185	164.25	12.28
3301	0.605	1.6185	164.25	12.28
3302	0.605	1.617	164.1	12.28
3303	0.605	1.617	164.25	12.28
3304	0.605	1.617	164.1	12.28
3305	0.6	1.617	164.1	12.28
3306	0.595	1.617	164.1	12.28
3307	0.595	1.617	164.1	12.28
3308	0.6	1.6155	164.1	12.28
3309	0.595	1.617	164.1	12.28
3310	0.59	1.617	164.1	12.28
3311	0.59	1.614	164.1	12.28
3312	0.59	1.614	163.95	12.28
3313	0.59	1.6155	164.1	12.28
3314	0.595	1.614	164.1	12.28
3315	0.59	1.617	164.1	12.28
3316	0.59	1.6155	164.1	12.28
3317	0.585	1.614	163.95	12.28
3318	0.58	1.611	163.95	12.28
3319	0.575	1.6125	163.95	12.28
3320	0.575	1.6125	163.95	12.28
3321	0.58	1.614	163.95	12.28
3322	0.58	1.6125	163.95	12.28
3323	0.575	1.611	163.8	12.28
3324	0.575	1.611	163.8	12.28
3325	0.575	1.6125	163.8	12.28
3326	0.575	1.614	163.95	12.28
3327	0.575	1.614	163.95	12.28
3328	0.575	1.6125	163.95	12.28
3329	0.575	1.6125	163.95	12.28
3330	0.57	1.6125	163.95	12.28
3331	0.57	1.6125	163.95	12.28
3332	0.57	1.6125	163.8	12.28
3333	0.565	1.611	163.8	12.28
3334	0.565	1.611	163.8	12.28
3335	0.56	1.611	163.8	12.28
3336	0.56	1.6095	163.8	12.28
3337	0.56	1.611	163.8	12.28
3338	0.56	1.611	163.8	12.28
3339	0.56	1.611	163.8	12.28
3340	0.56	1.6125	163.8	12.28
3341	0.555	1.611	163.8	12.28
3342	0.555	1.611	163.65	12.28
3343	0.555	1.6095	163.65	12.28
3344	0.55	1.608	163.65	12.28
3345	0.545	1.6095	163.65	12.28
3346	0.55	1.6065	163.65	12.28
3347	0.545	1.608	163.65	12.28
3348	0.545	1.608	163.65	12.28
3349	0.54	1.6095	163.65	12.28
3350	0.54	1.6065	163.65	12.28
3351	0.54	1.608	163.65	12.28
3352	0.54	1.6065	163.65	12.28
3353	0.545	1.608	163.65	12.28
3354	0.54	1.605	163.65	12.28
3355	0.54	1.608	163.65	12.28
3356	0.535	1.6065	163.65	12.28
3357	0.54	1.6065	163.65	12.28
3358	0.54	1.6065	163.65	12.28
3359	0.54	1.6065	163.65	12.28
3360	0.54	1.608	163.65	12.28
3361	0.535	1.6065	163.65	12.28
3362	0.54	1.605	163.65	12.28
3363	0.535	1.6065	163.5	12.28
3364	0.535	1.6065	163.5	12.28
3365	0.535	1.605	163.5	12.28
3366	0.535	1.605	163.5	12.28
3367	0.535	1.6065	163.5	12.28
3368	0.535	1.6065	163.5	12.28
3369	0.535	1.605	163.5	12.28
3370	0.535	1.605	163.5	12.28
3371	0.535	1.605	163.5	12.28
3372	0.535	1.6035	163.5	12.28
3373	0.535	1.6065	163.5	12.28
3374	0.535	1.605	163.5	12.28
3375	0.535	1.6035	163.5	12.28
3376	0.54	1.6035	163.5	12.28
3377	0.535	1.6035	163.5	12.28
3378	0.54	1.6035	163.5	12.28
3379	0.54	1.602	163.5	12.28
3380	0.54	1.6035	163.5	12.28
3381	0.54	1.605	163.5	12.28
3382	0.55	1.6035	163.5	12.28
3383	0.55	1.602	163.5	12.28
3384	0.545	1.602	163.35	12.28
3385	0.545	1.602	163.35	12.28
3386	0.55	1.6035	163.5	12.28
3387	0.55	1.6005	163.35	12.28
3388	0.545	1.6005	163.35	12.28
3389	0.545	1.6005	163.35	12.28
3390	0.545	1.599	163.35	12.28
3391	0.545	1.602	163.35	12.28
3392	0.545	1.6005	163.35	12.28
3393	0.55	1.6005	163.35	12.28
3394	0.545	1.6005	163.35	12.28
3395	0.54	1.6005	163.35	12.28
3396	0.535	1.599	163.35	12.28
3397	0.54	1.599	163.35	12.28
3398	0.54	1.6005	163.35	12.28
3399	0.54	1.599	163.35	12.28
3400	0.535	1.6005	163.35	12.28
3401	0.535	1.599	163.35	12.28
3402	0.535	1.599	163.35	12.28
3403	0.53	1.5975	163.35	12.28
3404	0.535	1.596	163.2	12.28
3405	0.535	1.5975	163.2	12.28
3406	0.535	1.5975	163.2	12.28
3407	0.535	1.5975	163.2	12.28
3408	0.535	1.5975	163.2	12.28
3409	0.535	1.596	163.2	12.28
3410	0.535	1.596	163.2	12.28
3411	0.535	1.599	163.2	12.28
3412	0.535	1.5975	163.2	12.28
3413	0.53	1.5975	163.2	12.28
3414	0.53	1.596	163.2	12.28
3415	0.535	1.596	163.2	12.28
3416	0.53	1.596	163.2	12.28
3417	0.53	1.596	163.2	12.28
3418	0.525	1.596	163.2	12.28
3419	0.525	1.596	163.2	12.28
3420	0.525	1.596	163.2	12.28
3421	0.53	1.5975	163.2	12.28
3422	0.525	1.5975	163.2	12.28
3423	0.525	1.5975	163.2	12.28
3424	0.525	1.5945	163.2	12.28
3425	0.525	1.5945	163.2	12.28
3426	0.525	1.5945	163.2	12.28
3427	0.515	1.593	163.2	12.28
3428	0.52	1.5945	163.2	12.28
3429	0.52	1.596	163.2	12.28
3430	0.515	1.5945	163.2	12.28
3431	0.515	1.593	163.2	12.28
3432	0.52	1.5945	163.2	12.28
3433	0.515	1.5945	163.2	12.28
3434	0.515	1.5945	163.2	12.28
3435	0.515	1.593	163.05	12.28
3436	0.515	1.593	163.05	12.28
3437	0.515	1.593	163.05	12.28
3438	0.515	1.593	163.05	12.28
3439	0.515	1.5945	163.05	12.28
3440	0.52	1.593	163.05	12.28
3441	0.515	1.593	163.05	12.28
3442	0.515	1.5915	163.05	12.28
3443	0.515	1.5915	163.05	12.28
3444	0.515	1.593	163.05	12.28
3445	0.515	1.593	163.05	12.28
3446	0.51	1.593	163.05	12.28
3447	0.505	1.593	163.05	12.28
3448	0.505	1.593	163.05	12.28
3449	0.5	1.5915	163.05	12.28
3450	0.5	1.593	162.9	12.28
3451	0.495	1.5885	162.9	12.28
3452	0.495	1.5915	162.9	12.28
3453	0.5	1.59	162.9	12.28
3454	0.495	1.59	162.9	12.28
3455	0.5	1.59	162.9	12.28
3456	0.5	1.5915	162.9	12.28
3457	0.5	1.59	162.9	12.28
3458	0.5	1.5915	162.9	12.28
3459	0.505	1.59	162.9	12.28
3460	0.505	1.5885	162.9	12.28
3461	0.5	1.59	162.9	12.28
3462	0.505	1.5885	162.9	12.28
3463	0.505	1.5885	162.9	12.28
3464	0.505	1.5885	162.9	12.28
3465	0.5	1.5885	162.75	12.28
3466	0.5	1.59	162.9	12.28
3467	0.505	1.59	162.9	12.28
3468	0.505	1.5885	162.9	12.28
3469	0.505	1.5885	162.9	12.28
3470	0.505	1.59	162.9	12.28
3471	0.51	1.5885	162.9	12.28
3472	0.51	1.5885	162.75	12.28
3473	0.505	1.587	162.75	12.28
3474	0.505	1.587	162.75	12.28
3475	0.505	1.587	162.75	12.28
3476	0.5	1.587	162.75	12.28
3477	0.505	1.5855	162.75	12.28
3478	0.505	1.5855	162.75	12.28
3479	0.505	1.587	162.75	12.28
3480	0.51	1.5855	162.75	12.28
3481	0.515	1.587	162.75	12.28
3482	0.51	1.5885	162.75	12.28
3483	0.515	1.587	162.75	12.28
3484	0.51	1.587	162.6	12.28
3485	0.51	1.587	162.6	12.28
3486	0.51	1.5855	162.6	12.28
3487	0.515	1.5825	162.6	12.28
3488	0.51	1.5855	162.6	12.28
3489	0.515	1.5855	162.6	12.28
3490	0.515	1.5825	162.6	12.28
3491	0.51	1.584	162.6	12.28
3492	0.51	1.584	162.6	12.28
3493	0.515	1.584	162.6	12.28
3494	0.51	1.5825	162.45	12.28
3495	0.51	1.584	162.45	12.28
3496	0.51	1.5825	162.45	12.28
3497	0.51	1.5825	162.45	12.28
3498	0.51	1.5825	162.45	12.28
3499	0.505	1.581	162.45	12.28
3500	0.505	1.5825	162.45	12.28
3501	0.51	1.581	162.45	12.28
3502	0.505	1.581	162.45	12.28
3503	0.505	1.5795	162.45	12.28
3504	0.505	1.581	162.45	12.28
3505	0.51	1.5825	162.3	12.28
3506	0.505	1.5795	162.3	12.28
3507	0.505	1.5795	162.3	12.28
3508	0.505	1.581	162.3	12.28
3509	0.495	1.5795	162.3	12.28
3510	0.5	1.581	162.3	12.28
3511	0.505	1.578	162.3	12.28
3512	0.505	1.578	162.3	12.28
3513	0.505	1.5795	162.3	12.28
3514	0.505	1.5795	162.3	12.28
3515	0.505	1.5795	162.3	12.28
3516	0.51	1.5795	162.3	12.28
3517	0.505	1.5795	162.3	12.28
3518	0.505	1.578	162.3	12.28
3519	0.51	1.5795	162.3	12.28
3520	0.505	1.578	162.3	12.28
3521	0.505	1.578	162.3	12.28
3522	0.51	1.5795	162.3	12.28
3523	0.51	1.578	162.3	12.28
3524	0.515	1.5795	162.3	12.28
3525	0.51	1.5765	162.3	12.28
3526	0.51	1.5765	162.15	12.28
3527	0.505	1.578	162.3	12.28
3528	0.505	1.578	162.15	12.28
3529	0.505	1.5765	162.15	12.28
3530	0.505	1.5795	162.15	12.28
3531	0.505	1.578	162.15	12.28
3532	0.51	1.578	162.15	12.28
3533	0.51	1.5765	162.15	12.28
3534	0.51	1.5765	162.15	12.28
3535	0.505	1.5765	162.15	12.28
3536	0.51	1.578	162.15	12.28
3537	0.5	1.578	162.15	12.28
3538	0.5	1.5795	162.15	12.28
3539	0.495	1.578	162.15	12.28
3540	0.5	1.578	162.15	12.28
3541	0.5	1.578	162.15	12.28
3542	0.5	1.5765	162.15	12.28
3543	0.5	1.5765	162.15	12.28
3544	0.49	1.5765	162.15	12.28
3545	0.495	1.578	162.15	12.28
3546	0.485	1.5765	162.15	12.28
3547	0.49	1.578	162.15	12.28
3548	0.49	1.5765	162.15	12.28
3549	0.49	1.5765	162.15	12.28
3550	0.485	1.575	162.15	12.28
3551	0.48	1.575	162.0	12.28
3552	0.475	1.575	162.0	12.28
3553	0.475	1.575	162.0	12.28
3554	0.475	1.575	162.0	12.28
3555	0.475	1.5735	162.0	12.28
3556	0.47	1.575	162.0	12.28
3557	0.475	1.5735	162.0	12.28
3558	0.47	1.5735	162.0	12.28
3559	0.475	1.572	161.85	12.28
3560	0.475	1.5735	161.85	12.28
3561	0.47	1.5735	161.85	12.28
3562	0.465	1.572	161.85	12.28
3563	0.465	1.5735	161.85	12.28
3564	0.47	1.572	161.85	12.28
3565	0.455	1.5735	161.85	12.28
3566	0.46	1.572	161.85	12.28
3567	0.46	1.5735	162.0	12.28
3568	0.455	1.5735	162.0	12.28
3569	0.46	1.5735	162.0	12.28
3570	0.46	1.575	162.0	12.28
3571	0.455	1.5735	161.85	12.28
3572	0.455	1.572	161.85	12.28
3573	0.455	1.5735	161.85	12.28
3574	0.455	1.572	161.85	12.28
3575	0.455	1.572	161.85	12.28
3576	0.455	1.5705	161.85	12.28
3577	0.455	1.572	161.85	12.28
3578	0.46	1.572	161.85	12.28
3579	0.465	1.572	161.85	12.28
3580	0.465	1.572	161.85	12.28
3581	0.47	1.5705	161.85	12.28
3582	0.465	1.5705	161.85	12.28
3583	0.465	1.5705	161.85	12.28
3584	0.465	1.572	161.85	12.28
3585	0.465	1.5675	161.7	12.28
3586	0.465	1.5705	161.7	12.28
3587	0.465	1.569	161.7	12.28
3588	0.46	1.5675	161.7	12.28
3589	0.465	1.569	161.7	12.28
3590	0.475	1.569	161.7	12.28
3591	0.47	1.569	161.7	12.28
3592	0.47	1.569	161.7	12.28
3593	0.48	1.569	161.7	12.28
3594	0.47	1.5675	161.7	12.28
3595	0.475	1.5675	161.7	12.28
3596	0.48	1.5705	161.7	12.28
3597	0.475	1.569	161.7	12.28
3598	0.48	1.566	161.7	12.28
3599	0.48	1.5675	161.7	12.28
3600	0.48	1.566	161.7	12.28
3601	0.475	1.566	161.7	12.28
3602	0.48	1.566	161.55	12.28
3603	0.48	1.5675	161.7	12.28
3604	0.48	1.569	161.7	12.28
3605	0.475	1.5675	161.7	12.28
3606	-1.115	0.948	115.2	12.28
3607	-2.845	0.03	6.6	12.28
3608	-2.62	0.0	2.4	12.28
3609	-2.525	0.0015	2.25	12.28
3610	-2.44	0.0	2.25	12.28
3611	-2.37	0.0	2.25	12.28
3612	-2.305	0.0	2.25	12.28
3613	-2.25	0.0	2.25	12.28
3614	-2.2	0.0	2.25	12.28
3615	-2.16	-0.0015	2.25	12.28
3616	-2.12	0.0	2.25	12.28
3617	-2.08	0.0	2.25	12.28
3618	-2.05	0.0	2.25	12.28
3619	-2.02	0.0	2.25	12.28
3620	-1.99	0.0	2.25	12.28
3621	-1.965	0.0	2.25	12.28
3622	-1.94	0.0	2.25	12.28
3623	-1.92	0.0	2.25	12.28
3624	-1.895	0.0	2.25	12.28
3625	-1.88	0.0	2.25	12.28
3626	-1.86	0.0	2.25	12.28
3627	-1.845	0.0	2.25	12.28
3628	-1.825	-0.0015	2.25	12.28
3629	-1.81	0.0	2.25	12.28
3630	-1.795	0.0	2.25	12.28
3631	-1.78	0.0	2.25	12.28
3632	-1.765	0.0	2.25	12.28
3633	-1.755	0.0	2.25	12.28
3634	-1.74	0.0	2.25	12.28
3635	-1.73	0.0	2.25	12.28
3636	-1.715	0.0	2.25	12.28
3637	-1.705	0.0	2.25	12.28
3638	-1.695	0.0	2.25	12.28
3639	-1.685	0.0	2.25	12.28
3640	-1.675	0.0	2.25	12.28
3641	-1.665	0.0	2.25	12.28
3642	-1.655	0.0	2.25	12.28
3643	-1.65	0.0	2.25	12.28
3644	-1.64	0.0	2.25	12.28
3645	-1.63	0.0	2.25	12.28
3646	-1.625	0.0	2.25	12.28
3647	-1.615	0.0	2.25	12.28
3648	-1.61	0.0	2.25	12.28
3649	-1.6	0.0	2.25	12.28
3650	-1.595	0.0	2.25	12.28
3651	-1.585	0.0	2.25	12.28
3652	-1.58	0.0	2.25	12.28
3653	-1.575	0.0	2.25	12.28
3654	-1.57	0.0	2.25	12.28
3655	-1.565	0.0	2.25	12.28
3656	-1.56	0.0	2.25	12.28
3657	-1.555	0.0	2.25	12.28
3658	-1.55	0.0	2.25	12.28
3659	-1.545	0.0	2.25	12.28
3660	-1.54	0.0	2.25	12.28
3661	-1.535	0.0	2.25	12.28
3662	-1.53	0.0	2.25	12.28
3663	-1.53	0.0	2.25	12.28
3664	-1.525	0.0	2.25	12.28
3665	-1.52	0.0	2.25	12.28
3666	-1.52	0.0	2.25	12.28
3667	-1.515	0.0	2.25	12.28
3668	-1.51	0.0	2.25	12.28
3669	-1.505	0.0	2.25	12.28
3670	-1.5	0.0	2.25	12.28
3671	-1.495	0.0	2.25	12.28
3672	-1.495	0.0	2.25	12.28
3673	-1.49	0.0	2.25	12.28
3674	-1.485	0.0	2.25	12.28
3675	-1.48	0.0	2.25	12.28
3676	-1.475	0.0	2.25	12.28
3677	-1.47	0.0	2.25	12.28
3678	-1.465	0.0	2.25	12.28
3679	-1.465	0.0	2.25	12.28
3680	-1.46	0.0	2.25	12.28
3681	-1.46	0.0	2.25	12.28
3682	-1.455	0.0	2.25	12.28
3683	-1.45	0.0	2.25	12.28
3684	-1.45	0.0	2.25	12.28
3685	-1.445	0.0	2.25	12.28
3686	-1.445	0.0	2.25	12.28
3687	-1.44	0.0	2.25	12.28
3688	-1.44	0.0	2.25	12.28
3689	-1.44	0.0	2.25	12.28
3690	-1.435	0.0	2.25	12.28
3691	-1.43	0.0	2.25	12.28
3692	-1.425	0.0	2.25	12.28
3693	-1.425	0.0	2.25	12.28
3694	-1.42	0.0	2.25	12.28
3695	-1.42	0.0	2.25	12.28
3696	-1.415	0.0	2.25	12.28
3697	-1.415	0.0	2.25	12.28
3698	-1.41	0.0	2.25	12.28
3699	-1.41	0.0	2.25	12.28
3700	-1.41	0.0	2.25	12.28
3701	-1.41	0.0	2.25	12.28
3702	-1.405	0.0	2.25	12.28
3703	-1.4	0.0	2.25	12.28
3704	-1.4	-0.0015	2.25	12.28
3705	-1.4	0.0	2.25	12.28
3706	-1.4	0.0	2.25	12.28
3707	-1.4	0.0	2.25	12.28
3708	-1.395	0.0	2.25	12.28
3709	-1.39	0.0	2.25	12.28
3710	-1.39	0.0	2.25	12.28
3711	-1.395	0.0	2.25	12.28
3712	-1.39	0.0	2.25	12.28
3713	-1.39	0.0	2.25	12.28
3714	-1.39	0.0	2.25	12.28
3715	-1.385	0.0	2.25	12.28
3716	-1.385	0.0	2.25	12.28
3717	-1.38	0.0	2.25	12.28
3718	-1.375	0.0	2.25	12.28
3719	-1.375	0.0	2.25	12.28
3720	-1.375	0.0	2.25	12.28
3721	-1.375	0.0	2.25	12.28
3722	-1.375	0.0	2.25	12.28
3723	-1.37	0.0	2.25	12.28
3724	-1.37	0.0	2.25	12.28
3725	-1.37	0.0	2.25	12.28
3726	-1.365	0.0	2.25	12.28
3727	-1.365	0.0	2.25	12.28
3728	-1.365	0.0	2.25	12.28
3729	-1.36	0.0	2.25	12.28
3730	-1.36	0.0	2.25	12.28
3731	-1.36	0.0	2.25	12.28
3732	-1.355	0.0	2.25	12.28
3733	-1.355	0.0	2.1	12.28
3734	-1.355	0.0	2.25	12.28
3735	-1.355	0.0	2.25	12.28
3736	-1.355	0.0	2.25	12.28
3737	-1.355	0.0	2.25	12.28
3738	-1.35	0.0	2.25	12.28
3739	-1.35	0.0	2.25	12.28
3740	-1.35	0.0	2.25	12.28
3741	-1.35	0.0	2.25	12.28
3742	-1.345	0.0	2.25	12.28
3743	-1.345	0.0	2.1	12.28
3744	-1.345	0.0	2.25	12.28
3745	-1.34	0.0	2.25	12.28
3746	-1.34	0.0	2.25	12.28
3747	-1.34	0.0	2.25	12.28
3748	-1.34	0.0	2.25	12.28
3749	-1.335	0.0	2.25	12.28
3750	-1.34	0.0	2.25	12.28
3751	-1.335	0.0	2.25	12.28
3752	-1.335	0.0	2.25	12.28
3753	-1.335	0.0	2.25	12.28
3754	-1.335	0.0	2.25	12.28
3755	-1.33	0.0	2.25	12.28
3756	-1.33	0.0	2.25	12.28
3757	-1.33	0.0	2.25	12.28
3758	-1.33	0.0	2.25	12.28
3759	-1.335	0.0	2.25	12.28
3760	-1.33	0.0	2.25	12.28
3761	-1.33	0.0	2.25	12.28
3762	-1.33	0.0	2.25	12.28
3763	-1.33	0.0	2.25	12.28
3764	-1.33	0.0	2.25	12.28
3765	-1.335	0.0	2.25	12.28
3766	-1.33	0.0	2.25	12.28
3767	-1.33	0.0	2.25	12.28
3768	-1.335	0.0	2.25	12.28
3769	-1.33	0.0	2.25	12.28
3770	-1.33	-0.0015	2.25	12.28
3771	-1.33	0.0	2.25	12.28
3772	-1.33	0.0	2.25	12.28
3773	-1.33	0.0	2.25	12.28
3774	-1.33	-0.0015	2.25	12.28
3775	-1.325	0.0	2.1	12.28
3776	-1.325	0.0	2.25	12.28
3777	-1.325	0.0	2.1	12.28
3778	-1.32	0.0	2.25	12.28
3779	-1.325	0.0	2.25	12.28
3780	-1.325	0.0	2.25	12.28
3781	-1.325	0.0	2.25	12.28
3782	-1.325	0.0	2.25	12.28
3783	-1.325	0.0	2.25	12.28
3784	-1.325	0.0	2.25	12.28
3785	-1.325	0.0	2.25	12.28
3786	-1.32	0.0	2.25	12.28
3787	-1.32	0.0	2.25	12.28
3788	-1.32	0.0	2.25	12.28
3789	-1.315	0.0	2.25	12.28
3790	-1.315	0.0	2.25	12.28
3791	-1.31	0.0	2.25	12.28
3792	-1.31	0.0	2.25	12.28
3793	-1.305	0.0	2.25	12.28
3794	-1.305	0.0	2.25	12.28
3795	-1.305	0.0	2.25	12.28
3796	-1.3	0.0	2.25	12.28
3797	-1.3	0.0	2.25	12.28
3798	-1.3	0.0	2.25	12.28
3799	-1.3	0.0	2.25	12.28
3800	-1.295	0.0	2.25	12.28
3801	-1.295	0.0	2.25	12.28
3802	-1.29	0.0	2.25	12.28
3803	-1.29	0.0	2.25	12.28
3804	-1.29	0.0	2.25	12.28
3805	-1.285	0.0	2.25	12.28
3806	-1.285	0.0	2.25	12.28
3807	-1.285	0.0	2.25	12.28
3808	-1.285	0.0	2.25	12.28
3809	-1.285	0.0	2.25	12.28
3810	-1.285	0.0	2.25	12.28
3811	-1.285	0.0	2.25	12.28
3812	-1.285	0.0	2.25	12.28
3813	-1.285	0.0	2.25	12.28
3814	-1.285	0.0	2.1	12.28
3815	-1.285	0.0	2.25	12.28
3816	-1.29	0.0	2.25	12.28
3817	-1.285	0.0	2.25	12.28
3818	-1.285	-0.0015	2.25	12.28
3819	-1.285	0.0	2.25	12.28
3820	-1.285	0.0	2.25	12.28
3821	-1.285	0.0	2.25	12.28
3822	-1.285	0.0	2.25	12.28
3823	-1.28	0.0	2.25	12.28
3824	-1.28	0.0	2.25	12.28
3825	-1.28	0.0	2.25	12.28
3826	-1.28	0.0	2.25	12.28
3827	-1.275	0.0	2.25	12.28
3828	-1.275	0.0	2.25	12.28
3829	-1.275	0.0	2.25	12.28
3830	-1.275	0.0	2.25	12.28
3831	-1.275	0.0	2.25	12.28
3832	-1.27	0.0	2.25	12.28
3833	-1.27	0.0	2.25	12.28
3834	-1.27	0.0	2.25	12.28
3835	-1.27	0.0	2.1	12.28
3836	-1.265	0.0	2.1	12.28
3837	-1.265	0.0	2.1	12.28
3838	-1.26	0.0	2.1	12.28
3839	-1.26	0.0	2.25	12.28
3840	-1.26	0.0	2.25	12.28
3841	-1.255	0.0	2.25	12.28
3842	-1.255	0.0	2.25	12.28
3843	-1.25	0.0	2.25	12.28
3844	-1.255	0.0	2.25	12.28
3845	-1.255	0.0	2.25	12.28
3846	-1.25	0.0	2.25	12.28
3847	-1.25	0.0	2.25	12.28
3848	-1.25	0.0	2.25	12.28
3849	-1.25	0.0	2.25	12.28
3850	-1.255	0.0	2.25	12.28
3851	-1.25	0.0	2.25	12.28
3852	-1.25	0.0	2.25	12.28
3853	-1.255	0.0	2.25	12.28
3854	-1.255	0.0	2.25	12.28
3855	-1.255	0.0	2.25	12.28
3856	-1.25	0.0	2.25	12.28
3857	-1.25	0.0	2.25	12.28
3858	-1.25	0.0	2.25	12.28
3859	-1.255	0.0	2.25	12.28
3860	-1.255	0.0	2.25	12.28
3861	-1.255	0.0	2.25	12.28
3862	-1.25	0.0	2.25	12.28
3863	-1.25	0.0	2.25	12.28
3864	-1.25	0.0	2.25	12.28
3865	-1.25	0.0	2.25	12.28
3866	-1.25	0.0	2.25	12.28
3867	-1.25	0.0	2.25	12.28
3868	-1.245	0.0	2.25	12.28
3869	-1.245	0.0	2.1	12.28
3870	-1.245	0.0	2.1	12.28
3871	-1.245	0.0	2.1	12.28
3872	-1.245	0.0	2.1	12.28
3873	-1.245	0.0	2.1	12.28
3874	-1.245	0.0	2.25	12.28
3875	-1.24	0.0	2.1	12.28
3876	-1.24	0.0	2.1	12.28
3877	-1.24	-0.0015	2.1	12.28
3878	-1.24	0.0	2.1	12.28
3879	-1.24	0.0	2.1	12.28
3880	-1.24	0.0	2.1	12.28
3881	-1.245	0.0	2.1	12.28
3882	-1.245	0.0	2.1	12.28
3883	-1.245	0.0	2.1	12.28
3884	-1.245	0.0	2.1	12.28
3885	-1.245	0.0	2.1	12.28
3886	-1.245	0.0	2.25	12.28
3887	-1.245	0.0	2.25	12.28
3888	-1.24	0.0	2.25	12.28
3889	-1.24	0.0	2.25	12.28
3890	-1.245	0.0	2.1	12.28
3891	-1.245	0.0	2.25	12.28
3892	-1.245	0.0	2.25	12.28
3893	-1.245	0.0	2.1	12.28
3894	-1.245	0.0	2.1	12.28
3895	-1.245	0.0	2.1	12.28
3896	-1.245	0.0	2.1	12.28
3897	-1.245	0.0	2.1	12.28
3898	-1.245	0.0	2.1	12.28
3899	-1.245	0.0	2.1	12.28
3900	-1.24	0.0	2.1	12.28
3901	-1.24	0.0	2.1	12.28
3902	-1.24	0.0	2.25	12.28
3903	-1.24	0.0	2.25	12.28
3904	-1.24	0.0	2.25	12.28
3905	-1.24	0.0	2.25	12.28
3906	-1.24	0.0	2.25	12.28
3907	-1.24	0.0	2.25	12.28
3908	-1.24	0.0	2.25	12.28
3909	-1.24	0.0	2.25	12.28
3910	-1.24	0.0	2.25	12.28
3911	-1.24	0.0	2.25	12.28
3912	-1.24	-0.0015	2.25	12.28
3913	-1.24	0.0	2.25	12.28
3914	-1.24	0.0	2.25	12.28
3915	-1.24	0.0	2.25	12.28
3916	-1.235	0.0	2.25	12.28
3917	-1.24	0.0	2.1	12.28
3918	-1.24	0.0	2.25	12.28
3919	-1.24	0.0	2.25	12.28
3920	-1.24	0.0	2.1	12.28
3921	-1.24	0.0	2.25	12.28
3922	-1.24	0.0	2.1	12.28
3923	-1.235	0.0	2.1	12.28
3924	-1.235	0.0	2.1	12.28
3925	-1.24	0.0	2.25	12.28
3926	-1.245	0.0	2.25	12.28
3927	-1.25	0.0	2.1	12.28
3928	-1.26	0.0	2.1	12.28
3929	-1.26	0.0	2.1	12.28
3930	-1.26	0.0	2.1	12.28
3931	-1.26	-0.0015	2.1	12.28
3932	-1.26	0.0	2.1	12.28
3933	-1.255	0.0	2.1	12.28
3934	-1.255	0.0	2.25	12.28
3935	-1.255	0.0	2.25	12.28
3936	-1.25	0.0	2.1	12.28
3937	-1.245	0.0	2.25	12.28
3938	-1.245	0.0	2.1	12.28
3939	-1.245	0.0	2.25	12.28
3940	-1.25	0.0	2.1	12.28
3941	-1.25	0.0	2.25	12.28
3942	-1.245	0.0	2.25	12.28
3943	-1.245	0.0	2.1	12.28
3944	-1.245	0.0	2.1	12.28
3945	-1.245	0.0	2.25	12.28
3946	-1.245	0.0	2.1	12.28
3947	-1.245	0.0	2.25	12.28
3948	-1.245	0.0	2.1	12.28
3949	-1.245	0.0	2.25	12.28
3950	-1.245	0.0	2.1	12.28
3951	-1.245	0.0	2.1	12.28
3952	-1.245	0.0	2.1	12.28
3953	-1.245	0.0	2.25	12.28
3954	-1.24	0.0	2.1	12.28
3955	-1.24	0.0	2.1	12.28
3956	-1.235	0.0	2.1	12.28
3957	-1.235	0.0	2.1	12.28
3958	-1.235	0.0	2.1	12.28
3959	-1.235	0.0	2.1	12.28
3960	-1.235	0.0	2.1	12.28
3961	-1.23	0.0	2.25	12.28
3962	-1.235	0.0	2.1	12.28
3963	-1.235	0.0	2.25	12.28
3964	-1.235	0.0	2.1	12.28
3965	-1.235	0.0	2.1	12.28
3966	-1.235	0.0	2.1	12.28
3967	-1.235	0.0	2.1	12.28
3968	-1.235	0.0	2.1	12.28
3969	-1.23	0.0	2.1	12.28
3970	-1.23	0.0	2.25	12.28
3971	-1.23	0.0	2.1	12.28
3972	-1.23	0.0	2.1	12.28
3973	-1.23	0.0	2.1	12.28
3974	-1.23	0.0	2.1	12.28
3975	-1.225	0.0	2.25	12.28
3976	-1.23	0.0	2.25	12.28
3977	-1.23	0.0	2.1	12.28
3978	-1.23	0.0	2.25	12.28
3979	-1.225	0.0	2.1	12.28
3980	-1.225	0.0	2.25	12.28
3981	-1.225	0.0	2.25	12.28
3982	-1.225	0.0	2.1	12.28
3983	-1.225	0.0	2.25	12.28
3984	-1.225	0.0	2.1	12.28
3985	-1.225	0.0	2.1	12.28
3986	-1.225	0.0	2.25	12.28
3987	-1.225	0.0	2.25	12.28
3988	-1.225	0.0	2.25	12.28
3989	-1.225	0.0	2.25	12.28
3990	-1.225	0.0	2.25	12.28
3991	-1.225	0.0	2.25	12.28
3992	-1.225	0.0	2.25	12.28
3993	-1.225	0.0	2.25	12.28
3994	-1.225	0.0	2.25	12.28
3995	-1.225	0.0	2.25	12.28
3996	-1.225	0.0	2.25	12.28
3997	-1.22	0.0	2.25	12.28
3998	-1.225	0.0	2.1	12.28
3999	-1.225	0.0	2.25	12.28
4000	-1.225	0.0	2.25	12.28
4001	-1.225	0.0	2.25	12.28
4002	-1.225	0.0	2.25	12.28
4003	-1.225	0.0	2.25	12.28
4004	-1.225	0.0	2.25	12.28
4005	-1.22	0.0	2.25	12.28
4006	-1.22	0.0	2.25	12.28
4007	-1.22	0.0	2.25	12.28
4008	-1.22	0.0	2.25	12.28
4009	-1.22	0.0	2.25	12.28
4010	-1.22	0.0	2.25	12.28
4011	-1.225	0.0	2.25	12.28
4012	-1.225	0.0	2.25	12.28
4013	-1.225	0.0	2.25	12.28
4014	-1.225	0.0	2.25	12.28
4015	-1.225	0.0	2.25	12.28
4016	-1.225	0.0	2.25	12.28
4017	-1.225	0.0	2.25	12.28
4018	-1.225	0.0	2.25	12.28
4019	-1.225	0.0	2.25	12.28
4020	-1.23	0.0	2.25	12.28
4021	-1.23	0.0	2.25	12.28
4022	-1.225	0.0	2.25	12.28
4023	-1.225	0.0	2.25	12.28
4024	-1.23	0.0	2.25	12.28
4025	-1.23	0.0	2.25	12.28
4026	-1.23	0.0	2.25	12.28
4027	-1.23	0.0	2.25	12.28
4028	-1.23	0.0	2.25	12.28
4029	-1.23	0.0	2.1	12.28
4030	-1.23	0.0	2.1	12.28
4031	-1.23	0.0	2.1	12.28
4032	-1.23	0.0	2.1	12.28
4033	-1.23	0.0	2.1	12.28
4034	-1.23	0.0	2.1	12.28
4035	-1.23	0.0	2.1	12.28
4036	-1.23	0.0	2.1	12.28
4037	-1.23	0.0	2.25	12.28
4038	-1.23	0.0	2.1	12.28
4039	-1.23	0.0	2.1	12.28
4040	-1.235	0.0	2.1	12.28
4041	-1.23	0.0	2.1	12.28
4042	-1.23	0.0	2.25	12.28
4043	-1.23	0.0	2.25	12.28
4044	-1.235	0.0	2.25	12.28
4045	-1.235	0.0	2.25	12.28
4046	-1.23	0.0	2.25	12.28
4047	-1.23	-0.0015	2.25	12.28
4048	-1.23	0.0	2.25	12.28
4049	-1.23	0.0	2.25	12.28
4050	-1.225	0.0	2.1	12.28
4051	-1.225	0.0	2.1	12.28
4052	-1.225	0.0	2.1	12.28
4053	-1.225	0.0	2.1	12.28
4054	-1.225	0.0	2.1	12.28
4055	-1.225	0.0	2.1	12.28
4056	-1.225	0.0	2.1	12.28
4057	-1.225	0.0	2.1	12.28
4058	-1.22	0.0	2.1	12.28
4059	-1.225	0.0	2.1	12.28
4060	-1.225	0.0	2.25	12.28
4061	-1.22	0.0	2.25	12.28
4062	-1.225	0.0	2.1	12.28
4063	-1.225	0.0	2.1	12.28
4064	-1.225	0.0	2.1	12.28
4065	-1.225	0.0	2.1	12.28
4066	-1.225	0.0	2.1	12.28
4067	-1.225	0.0	2.1	12.28
4068	-1.22	0.0	2.1	12.28
4069	-1.225	0.0	2.1	12.28
4070	-1.225	0.0	2.1	12.28
4071	-1.225	0.0	2.1	12.28
4072	-1.22	0.0	2.1	12.28
4073	-1.225	0.0	2.1	12.28
4074	-1.225	0.0	2.1	12.28
4075	-1.225	0.0	2.1	12.28
4076	-1.225	0.0	2.1	12.28
4077	-1.23	0.0	2.1	12.28
4078	-1.225	-0.0015	2.1	12.28
4079	-1.23	0.0	2.1	12.28
4080	-1.23	0.0	2.1	12.28
4081	-1.23	0.0	2.1	12.28
4082	-1.225	0.0	2.1	12.28
4083	-1.225	0.0	2.1	12.28
4084	-1.23	0.0	2.1	12.28
4085	-1.23	0.0	2.1	12.28
4086	-1.225	0.0	2.1	12.28
4087	-1.225	0.0	2.1	12.28
4088	-1.225	0.0	2.1	12.28
4089	-1.23	0.0	2.1	12.28
4090	-1.23	0.0	2.1	12.28
4091	-1.23	0.0	2.1	12.28
4092	-1.235	0.0	2.1	12.28
4093	-1.235	0.0	2.1	12.28
4094	-1.24	0.0	2.1	12.28
4095	-1.24	0.0	2.1	12.28
4096	-1.24	0.0	2.1	12.28
4097	-1.24	0.0	2.1	12.28
4098	-1.24	0.0	2.1	12.28
4099	-1.24	0.0	2.1	12.28
4100	-1.24	0.0	2.1	12.28
4101	-1.24	0.0	2.1	12.28
4102	-1.24	0.0	2.1	12.28
4103	-1.24	0.0	2.1	12.28
4104	-1.24	0.0	2.1	12.28
4105	-1.24	0.0	2.1	12.28
4106	-1.235	0.0	2.1	12.28
4107	-1.235	0.0	2.1	12.28
4108	-1.235	0.0	2.1	12.28
4109	-1.235	0.0	2.1	12.28
4110	-1.23	0.0	2.1	12.28
4111	-1.23	0.0	2.1	12.28
4112	-1.23	0.0	2.1	12.28
4113	-1.23	0.0	2.1	12.28
4114	-1.23	0.0	2.1	12.28
4115	-1.23	0.0	2.1	12.28
4116	-1.23	0.0	2.1	12.28
4117	-1.23	-0.0015	2.1	12.28
4118	-1.225	0.0	2.25	12.28
4119	-1.225	0.0	2.25	12.28
4120	-1.225	0.0	2.25	12.28
4121	-1.215	0.0	2.1	9.09
4122	-1.195	0.0	2.1	9.09
4123	-1.185	0.0	2.1	9.09
4124	-1.17	0.0	2.25	9.09
4125	-1.16	0.0	2.1	9.09
4126	-1.155	0.0	2.1	9.09
4127	-1.145	0.0	2.1	9.09
4128	-1.14	0.0	2.1	9.09
4129	-1.135	-0.0015	2.1	9.09
4130	-1.13	0.0	2.1	9.09
4131	-1.125	0.0	2.1	9.09
4132	-1.12	0.0	2.1	9.09
4133	-1.115	0.0	2.1	9.09
4134	-1.115	0.0	2.1	9.09
4135	-1.11	0.0	2.1	9.09
4136	-1.11	0.0	2.1	9.09
4137	-1.11	0.0	2.1	9.09
4138	-1.105	0.0	2.1	9.09
4139	-1.1	0.0	2.1	9.09
4140	-1.1	0.0	2.1	9.09
4141	-1.1	0.0	2.1	9.09
4142	-1.095	0.0	2.1	9.09
4143	-1.095	0.0	2.1	9.09
4144	-1.095	0.0	2.1	9.09
4145	-1.095	0.0	2.1	9.09
4146	-1.09	0.0	2.1	9.09
4147	-1.09	0.0	2.1	9.09
4148	-1.09	0.0	2.1	9.09
4149	-1.09	0.0	2.1	9.09
4150	-1.085	0.0	2.1	9.09
4151	-1.085	0.0	2.1	9.09
4152	-1.085	0.0	2.1	9.09
4153	-1.08	0.0	2.1	9.09
4154	-1.08	0.0	2.1	9.09
4155	-1.08	0.0	2.1	9.09
4156	-1.075	0.0	2.1	9.09
4157	-1.075	0.0	2.1	9.09
4158	-1.075	0.0	2.1	9.09
4159	-1.07	0.0	2.1	9.09
4160	-1.07	0.0	2.1	9.09
4161	-1.07	0.0	2.1	9.09
4162	-1.07	0.0	2.1	9.09
4163	-1.065	0.0	2.1	9.09
4164	-1.065	0.0	2.1	9.09
4165	-1.065	0.0	2.1	9.09
4166	-1.065	0.0	2.1	9.09
4167	-1.06	0.0	2.1	9.09
4168	-1.065	0.0	2.1	9.09
4169	-1.065	0.0	2.1	9.09
4170	-1.065	0.0	2.1	9.09
4171	-1.065	0.0	2.1	9.09
4172	-1.065	0.0	2.1	9.09
4173	-1.065	0.0	2.1	9.09
4174	-1.065	0.0	2.1	9.09
4175	-1.065	0.0	2.1	9.09
4176	-1.065	0.0	2.1	9.09
4177	-1.06	0.0	2.1	9.09
4178	-1.065	0.0	2.1	9.09
4179	-1.065	0.0	2.1	9.09
4180	-1.065	0.0	2.1	9.09
4181	-1.065	0.0	2.1	9.09
4182	-1.065	0.0	2.1	9.09
4183	-1.065	0.0	2.1	9.09
4184	-1.065	0.0	2.1	9.09
4185	-1.065	0.0	2.1	9.09
4186	-1.065	0.0	2.1	9.09
4187	-1.065	0.0	2.1	9.09
4188	-1.065	0.0	2.1	9.09
4189	-1.06	0.0	2.1	9.09
4190	-1.06	0.0	2.1	9.09
4191	-1.06	0.0	2.1	9.09
4192	-1.06	0.0	2.1	9.09
4193	-1.06	0.0	2.1	9.09
4194	-1.06	0.0	2.1	9.09
4195	-1.06	0.0	2.1	9.09
4196	-1.06	0.0	2.1	9.09
4197	-1.06	0.0	2.1	9.09
4198	-1.06	0.0	2.1	9.09
4199	-1.055	0.0	2.1	9.09
4200	-1.06	0.0	2.1	9.09
4201	-1.055	0.0	2.1	9.09
4202	-1.055	0.0	2.1	9.09
4203	-1.06	0.0	2.1	9.09
4204	-1.055	0.0	2.1	9.09
4205	-1.055	0.0	2.1	9.09
4206	-1.055	0.0	2.1	9.09
4207	-1.055	0.0	2.1	9.09
4208	-1.055	0.0	2.1	9.09
4209	-1.055	0.0	2.1	9.09
4210	-1.055	0.0	2.1	9.09
4211	-1.055	0.0	2.1	9.09
4212	-1.055	0.0	2.1	9.09
4213	-1.055	0.0	2.1	9.09
4214	-1.055	0.0	2.1	9.09
4215	-1.05	0.0	2.1	9.09
4216	-1.055	0.0	2.1	9.09
4217	-1.055	0.0	2.1	9.09
4218	-1.05	0.0	2.1	9.09
4219	-1.055	0.0	2.1	9.09
4220	-1.055	0.0	2.1	9.09
4221	-1.055	0.0	2.1	9.09
4222	-1.055	0.0	2.1	9.09
4223	-1.055	0.0	2.1	9.09
4224	-1.055	0.0	2.1	9.09
4225	-1.05	0.0	2.1	9.09
4226	-1.055	-0.0015	2.1	9.09
4227	-1.055	0.0	2.1	9.09
4228	-1.055	0.0	2.1	9.09
4229	-1.05	0.0	2.1	9.09
4230	-1.05	0.0	2.1	9.09
4231	-1.05	0.0	2.1	9.09
4232	-1.05	0.0	2.1	9.09
4233	-1.05	0.0	2.1	9.09
4234	-1.05	0.0	2.1	9.09
4235	-1.05	0.0	2.1	9.09
4236	-1.05	0.0	2.1	9.09
4237	-1.05	0.0	2.1	9.09
4238	-1.05	0.0	2.1	9.09
4239	-1.055	0.0	2.1	9.09
4240	-1.055	0.0	2.1	9.09
4241	-1.055	0.0	2.1	9.09
4242	-1.055	0.0	2.1	9.09
4243	-1.055	0.0	2.1	9.09
4244	-1.06	0.0	2.1	9.09
4245	-1.06	0.0	2.1	9.09
4246	-1.06	0.0	2.1	9.09
4247	-1.06	0.0	2.1	9.09
4248	-1.06	0.0	2.1	9.09
4249	-1.06	0.0	2.1	9.09
4250	-1.065	0.0	2.1	9.09
4251	-1.065	0.0	2.1	9.09
4252	-1.07	0.0	2.1	9.09
4253	-1.065	0.0	2.1	9.09
4254	-1.065	0.0	2.1	9.09
4255	-1.065	0.0	2.1	9.09
4256	-1.065	0.0	2.1	9.09
4257	-1.065	0.0	2.1	9.09
4258	-1.065	0.0	2.1	9.09
4259	-1.065	0.0	2.1	9.09
4260	-1.065	0.0	2.1	9.09
4261	-1.065	0.0	2.1	9.09
4262	-1.07	0.0	2.1	9.09
4263	-1.065	0.0	2.1	9.09
4264	-1.065	0.0	2.1	9.09
4265	-1.065	0.0	2.1	9.09
4266	-1.065	0.0	2.1	9.09
4267	-1.065	0.0	2.1	9.09
4268	-1.065	0.0	2.1	9.09
4269	-1.07	0.0	2.1	9.09
4270	-1.07	0.0	2.1	9.09
4271	-1.065	0.0	2.1	9.09
4272	-1.065	0.0	2.1	9.09
4273	-1.065	0.0	2.1	9.09
4274	-1.065	0.0	2.1	9.09
4275	-1.065	0.0	2.1	9.09
4276	-1.065	0.0	2.1	9.09
4277	-1.065	0.0	2.1	9.09
4278	-1.065	0.0	2.1	9.09
4279	-1.065	0.0	2.1	9.09
4280	-1.065	0.0	2.1	9.09
4281	-1.065	0.0	2.1	9.09
4282	-1.065	0.0	2.1	9.09
4283	-1.065	0.0	2.1	9.09
4284	-1.065	0.0	2.1	9.09
4285	-1.065	0.0	2.1	9.09
4286	-1.065	0.0	2.1	9.09
4287	-1.065	0.0	2.1	9.09
4288	-1.065	0.0	2.1	9.09
4289	-1.065	0.0	2.1	9.09
4290	-1.06	0.0	2.1	9.09
4291	-1.06	0.0	2.1	9.09
4292	-1.065	0.0	2.1	9.09
4293	-1.06	0.0	2.1	9.09
4294	-1.06	0.0	2.1	9.09
4295	-1.06	0.0	2.1	9.09
4296	-1.06	0.0	2.1	9.09
4297	-1.06	0.0	2.1	9.09
4298	-1.055	0.0	2.1	9.09
4299	-1.055	0.0	2.1	9.09
4300	-1.055	0.0	2.1	9.09
4301	-1.05	0.0	2.1	9.09
4302	-1.05	0.0	2.1	9.09
4303	-1.05	0.0	2.1	9.09
4304	-1.05	0.0	2.1	9.09
4305	-1.05	0.0	2.1	9.09
4306	-1.045	0.0	2.1	9.09
4307	-1.045	0.0	2.1	9.09
4308	-1.045	0.0	2.1	9.09
4309	-1.045	0.0	2.1	9.09
4310	-1.045	0.0	2.1	9.09
4311	-1.045	0.0	2.1	9.09
4312	-1.045	0.0	2.1	9.09
4313	-1.045	0.0	2.1	9.09
4314	-1.045	0.0	2.1	9.09
4315	-1.045	-0.0015	2.1	9.09
4316	-1.045	0.0	2.1	9.09
4317	-1.045	0.0	2.1	9.09
4318	-1.045	0.0	2.1	9.09
4319	-1.045	0.0	2.1	9.09
4320	-1.045	0.0	2.1	9.09
4321	-1.045	0.0	2.1	9.09
4322	-1.045	0.0	2.1	9.09
4323	-1.045	0.0	2.1	9.09
4324	-1.045	0.0	2.1	9.09
4325	-1.045	0.0	2.1	9.09
4326	-1.045	0.0	2.1	9.09
4327	-1.045	0.0	2.1	9.09
4328	-1.045	0.0	2.1	9.09
4329	-1.045	0.0	2.1	9.09
4330	-1.045	0.0	2.1	9.09
4331	-1.045	0.0	2.1	9.09
4332	-1.045	0.0	2.1	9.09
4333	-1.045	0.0	2.1	9.09
4334	-1.045	0.0	2.1	9.09
4335	-1.045	0.0	2.1	9.09
4336	-1.045	0.0	2.1	9.09
4337	-1.045	0.0	2.1	9.09
4338	-1.045	0.0	2.1	9.09
4339	-1.05	0.0	2.1	9.09
4340	-1.05	0.0	2.1	9.09
4341	-1.05	0.0	2.1	9.09
4342	-1.05	0.0	2.1	9.09
4343	-1.05	0.0	2.1	9.09
4344	-1.045	-0.0015	2.1	9.09
4345	-1.05	0.0	2.1	9.09
4346	-1.045	0.0	2.1	9.09
4347	-1.045	0.0	2.1	9.09
4348	-1.05	0.0	2.1	9.09
4349	-1.05	0.0	2.1	9.09
4350	-1.05	0.0	2.1	9.09
4351	-1.04	0.0	2.1	9.09
4352	-1.025	0.0	2.1	9.09
4353	-1.015	0.0	2.1	9.09
4354	-1.005	0.0	2.1	9.09
4355	-0.99	0.0	2.1	9.09
4356	-0.975	0.0	2.1	9.09
4357	-0.95	0.0	2.1	9.09
4358	-0.925	0.0	2.1	9.09
4359	-0.905	0.0	2.1	9.09
4360	-0.875	0.0	2.1	9.09
4361	-0.835	0.0	2.1	9.09
4362	-0.795	0.0	2.1	9.09
4363	-0.765	0.0	2.1	9.09
4364	-0.76	0.0	2.1	9.09
4365	-0.775	0.0	2.1	9.09
4366	-0.8	0.0	2.1	9.09
4367	-0.82	0.0	2.1	9.09
4368	-0.845	0.0	2.1	9.09
4369	-0.865	0.0	2.1	9.09
4370	-0.885	0.0	2.1	9.09
4371	-0.9	0.0	2.1	9.09
4372	-0.915	0.0	2.1	9.09
4373	-0.925	0.0	2.1	9.09
4374	-0.935	0.0	2.1	9.09
4375	-0.945	0.0	2.1	9.09
4376	-0.95	0.0	2.1	9.09
4377	-0.955	0.0	2.1	9.09
4378	-0.965	0.0	2.1	9.09
4379	-0.965	0.0	2.1	9.09
4380	-0.975	0.0	2.1	9.09
4381	-0.975	0.0	2.1	9.09
4382	-0.98	0.0	2.1	9.09
4383	-0.985	0.0	2.1	9.09
4384	-0.99	0.0	2.1	9.09
4385	-0.995	0.0	2.1	9.09
4386	-0.995	0.0	2.1	9.09
4387	-0.995	0.0	2.1	9.09
4388	-1.0	0.0	2.1	9.09
4389	-1.005	0.0	2.1	9.09
4390	-1.005	0.0	2.1	9.09
4391	-1.01	0.0	2.1	9.09
4392	-1.01	0.0	2.1	9.09
4393	-1.01	0.0	2.1	9.09
4394	-1.015	0.0	2.1	9.09
4395	-1.015	0.0	2.1	9.09
4396	-1.015	0.0	2.1	9.09
4397	-1.02	0.0	2.1	9.09
4398	-1.02	0.0	2.1	9.09
4399	-1.02	0.0	2.1	9.09
4400	-1.02	0.0	2.1	9.09
4401	-1.02	0.0	2.1	9.09
4402	-1.02	0.0	2.1	9.09
4403	-1.025	0.0	2.1	9.09
4404	-1.025	0.0	2.1	9.09
4405	-1.025	0.0	2.1	9.09
4406	-1.025	0.0	2.1	9.09
4407	-1.025	0.0	2.1	9.09
4408	-1.03	0.0	2.1	9.09
4409	-1.03	0.0	2.1	9.09
4410	-1.03	0.0	2.1	9.09
4411	-1.03	0.0	2.1	9.09
4412	-1.03	0.0	2.1	9.09
4413	-1.03	0.0	2.1	9.09
4414	-1.035	0.0	2.1	9.09
4415	-1.035	0.0	2.1	9.09
4416	-1.035	0.0	2.1	9.09
4417	-1.035	0.0	2.1	9.09
4418	-1.04	0.0	2.1	9.09
4419	-1.04	0.0	2.1	9.09
4420	-1.035	0.0	2.1	9.09
4421	-1.035	0.0	2.1	9.09
4422	-1.04	0.0	2.1	9.09
4423	-1.035	0.0	2.1	9.09
4424	-1.035	0.0	2.1	9.09
4425	-1.035	0.0	2.1	9.09
4426	-1.035	-0.0015	2.1	9.09
4427	-1.04	0.0	2.1	9.09
4428	-1.04	0.0	2.1	9.09
4429	-1.04	0.0	2.1	9.09
4430	-1.04	0.0	2.1	9.09
4431	-1.04	0.0	2.1	9.09
4432	-1.04	0.0	2.1	9.09
4433	-1.04	0.0	2.1	9.09
4434	-1.04	0.0	2.1	9.09
4435	-1.04	0.0	2.1	9.09
4436	-1.045	0.0	2.1	9.09
4437	-1.045	0.0	2.1	9.09
4438	-1.045	0.0	2.1	9.09
4439	-1.045	0.0	2.1	9.09
4440	-1.045	0.0	2.1	9.09
4441	-1.045	0.0	2.1	9.09
4442	-1.05	0.0	2.1	9.09
4443	-1.045	0.0	2.1	9.09
4444	-1.045	0.0	2.1	9.09
4445	-1.05	0.0	2.1	9.09
4446	-1.05	0.0	2.1	9.09
4447	-1.05	0.0	2.1	9.09
4448	-1.045	0.0	2.1	9.09
4449	-1.045	0.0	2.1	9.09
4450	-1.045	0.0	2.1	9.09
4451	-1.045	0.0	2.1	9.09
4452	-1.045	0.0	2.1	9.09
4453	-1.045	0.0	2.1	9.09
4454	-1.05	0.0	2.1	9.09
4455	-1.05	0.0	2.1	9.09
4456	-1.05	0.0	2.1	9.09
4457	-1.05	0.0	2.1	9.09
4458	-1.05	0.0	2.1	9.09
4459	-1.045	0.0	2.1	9.09
4460	-1.045	0.0	2.1	9.09
4461	-1.045	0.0	2.1	9.09
4462	-1.05	0.0	2.1	9.09
4463	-1.045	0.0	2.1	9.09
4464	-1.05	0.0	2.1	9.09
4465	-1.05	0.0	2.1	9.09
4466	-1.045	0.0	2.1	9.09
4467	-1.045	0.0	2.1	9.09
4468	-1.045	0.0	2.1	9.09
4469	-1.045	0.0	2.1	9.09
4470	-1.045	0.0	2.1	9.09
4471	-1.045	0.0	2.1	9.09
4472	-1.045	-0.0015	2.1	9.09
4473	-1.05	0.0	2.1	9.09
4474	-1.05	0.0	2.1	9.09
4475	-1.05	0.0	2.1	9.09
4476	-1.05	0.0	2.1	9.09
4477	-1.05	0.0	2.1	9.09
