# Spalte1: Zeit [s]
# Spalte2: Zellspannung [mV]
# Spalte3: Spulenstrom [A]
# Spalte4: Magn. Flussdichte [mT]
0	-2.41	0.0	2.25
1	-2.4	0.0	2.25
2	-2.39	0.0	2.25
3	-2.38	0.0	2.25
4	-2.37	0.0	2.25
5	-2.365	0.0	2.25
6	-2.355	0.0	2.1
7	-2.35	0.0	2.25
8	-2.345	0.0	2.1
9	-2.34	0.0	2.1
10	-2.33	0.0	2.25
11	-2.325	0.0	2.25
12	-2.32	0.0	2.25
13	-2.31	0.0	2.1
14	-2.305	0.0	2.1
15	-2.305	0.0	2.1
16	-2.3	0.0	2.1
17	-2.29	0.0	2.1
18	-2.29	0.0	2.1
19	-2.285	0.0	2.1
20	-2.28	0.0	2.1
21	-2.28	0.0	2.1
22	-2.275	0.0	2.25
23	-2.265	0.0	2.1
24	-2.265	0.0	2.1
25	-2.26	0.0	2.1
26	-2.26	0.0	2.1
27	-2.26	0.0	2.1
28	-2.255	0.0	2.1
29	-2.255	0.0	2.1
30	-2.25	0.0	2.1
31	-2.25	0.0	2.1
32	-2.245	0.0	2.1
33	-2.24	0.0	2.1
34	-2.24	0.0	2.1
35	-2.23	0.0	2.1
36	-2.23	0.0	2.1
37	-2.23	0.0	2.1
38	-2.23	0.0	2.1
39	-2.225	0.0	2.25
40	-2.225	0.0	2.25
41	-2.22	0.0	2.1
42	-2.215	0.0	2.1
43	-2.21	0.0	2.25
44	-2.21	0.0	2.1
45	-2.205	-0.0015	2.25
46	-2.2	0.0	2.1
47	-2.2	0.0	2.1
48	-2.2	0.0	2.1
49	-2.195	0.0	2.1
50	-2.19	0.0	2.1
51	-2.19	0.0	2.1
52	-2.19	0.0	2.1
53	-2.185	0.0	2.1
54	-2.185	0.0	2.1
55	-2.18	0.0	2.1
56	-2.175	0.0	2.1
57	-2.18	0.0	2.1
58	-2.175	0.0	2.1
59	-2.175	0.0	2.1
60	-2.175	0.0	2.1
61	-2.17	0.0	2.1
62	-2.165	0.0	2.1
63	-2.165	0.0	2.1
64	-2.16	0.0	2.1
65	-2.16	0.0	2.1
66	-2.16	0.0	2.1
67	-1.875	0.1065	17.25
68	-1.14	0.336	51.3
69	-0.455	0.5595	82.65
70	-0.05	0.741	101.85
71	0.275	0.9165	117.3
72	0.57	1.086	130.8
73	0.685	1.17	136.8
74	0.945	1.356	149.1
75	1.22	1.566	161.55
76	1.28	1.623	164.7
77	1.275	1.6215	164.7
78	1.27	1.6245	164.7
79	1.265	1.623	164.7
80	1.26	1.623	164.7
81	1.265	1.6215	164.7
82	1.255	1.6215	164.7
83	1.25	1.6215	164.7
84	1.245	1.62	164.7
85	1.24	1.6215	164.7
86	1.24	1.623	164.7
87	1.24	1.6215	164.7
88	1.235	1.6215	164.55
89	1.23	1.62	164.55
90	1.23	1.6215	164.55
91	1.23	1.6215	164.55
92	1.225	1.62	164.55
93	1.225	1.62	164.55
94	0.95	1.3155	147.0
95	-1.53	0.2055	32.55
96	-2.225	0.0015	2.25
97	-2.225	0.0	2.25
98	-2.215	0.0	2.1
99	-2.21	0.0	2.1
100	-2.2	0.0	2.1
101	-2.195	0.0	2.1
102	-2.19	0.0	2.1
103	-2.185	0.0	2.1
104	-2.175	0.0	2.1
105	-2.17	0.0	2.1
106	-2.17	0.0	2.1
107	-2.165	0.0	2.1
108	-2.16	0.0	2.1
109	-2.155	0.0	2.1
110	-2.15	0.0	2.1
111	-2.145	0.0	2.1
112	-2.145	0.0	2.1
113	-2.14	0.0	2.1
114	-2.14	0.0	2.1
115	-2.135	0.0	2.1
116	-2.13	0.0	2.1
117	-2.13	0.0	2.1
118	-2.125	0.0	2.1
119	-2.12	0.0	2.1
120	-2.12	0.0	2.1
121	-2.12	0.0	2.1
122	-2.115	0.0	2.1
123	-2.11	0.0	2.1
124	-2.11	0.0	2.1
125	-2.105	0.0	2.1
126	-2.105	0.0	2.1
127	-2.105	0.0	2.1
128	-2.1	0.0	2.1
129	-2.1	0.0	2.1
130	-2.1	0.0	2.1
131	-2.095	0.0	2.1
132	-2.095	0.0	2.1
133	-2.095	0.0	2.1
134	-2.09	0.0	2.1
135	-2.085	0.0	2.1
136	-2.085	0.0	2.1
137	-2.085	0.0	2.1
138	-2.085	0.0	2.1
139	-2.085	0.0	2.1
140	-2.08	0.0	2.1
141	-2.08	0.0	2.1
142	-2.075	0.0	2.1
143	-2.075	0.0	2.1
144	-2.075	0.0	2.1
145	-2.075	0.0	2.1
146	-2.075	0.0	2.1
147	-2.075	0.0	2.1
148	-2.075	0.0	2.1
149	-2.07	0.0	2.1
150	-2.07	0.0	2.1
151	-2.07	0.0	2.1
152	-2.065	0.0	2.1
153	-2.065	0.0	2.1
154	-2.06	0.0	2.1
155	-2.06	0.0	2.1
156	-2.06	0.0	2.1
157	-2.06	0.0	2.1
158	-2.06	0.0	2.1
159	-2.06	0.0	2.1
160	-2.055	0.0	2.1
161	-2.055	0.0	2.1
162	-2.055	0.0	2.1
163	-2.055	0.0	2.1
164	-2.055	0.0	2.1
165	-2.05	0.0	2.1
166	-2.05	0.0	2.1
167	-2.05	0.0	2.1
168	-2.045	0.0	2.1
169	-2.045	0.0	2.1
170	-2.045	0.0	2.1
171	-2.045	0.0	2.1
172	-2.04	0.0	2.1
173	-2.04	0.0	2.1
174	-2.04	0.0	2.1
175	-2.04	0.0	2.1
176	-2.04	0.0	2.1
177	-2.035	0.0	2.1
178	-2.04	0.0	2.1
179	-2.04	0.0	2.1
180	-2.04	0.0	2.1
181	-2.035	0.0	2.1
182	-2.035	0.0	2.1
183	-2.035	0.0	2.1
184	-2.035	0.0	2.1
185	-2.035	0.0	2.1
186	-2.035	0.0	2.1
187	-2.035	0.0	2.1
188	-2.035	0.0	2.1
189	-2.03	0.0	2.1
190	-2.03	0.0	2.1
191	-2.035	0.0	2.1
192	-2.035	0.0	2.1
193	-2.03	0.0	2.1
194	-2.03	0.0	2.1
195	-2.025	0.0	2.1
196	-2.025	-0.0015	2.1
197	-2.025	0.0	2.1
198	-2.02	0.0	2.1
199	-2.01	0.0	2.1
200	-2.0	0.0	2.1
201	-1.985	0.0	2.1
202	-1.98	0.0	2.1
203	-1.975	0.0	2.1
204	-1.97	0.0	2.1
205	-1.965	0.0	2.1
206	-1.96	0.0	2.1
207	-1.955	0.0	2.1
208	-1.95	0.0	2.1
209	-1.95	0.0	2.1
210	-1.945	0.0	2.1
211	-1.935	0.0	2.1
212	-1.935	0.0	2.1
213	-1.93	-0.0015	2.1
214	-1.925	0.0	2.1
215	-1.92	0.0	2.1
216	-1.91	0.0	2.1
217	-1.9	0.0	2.1
218	-1.9	0.0	2.1
219	-1.9	0.0	2.1
220	-1.9	0.0	2.1
221	-1.895	0.0	2.1
222	-1.895	0.0	2.1
223	-1.89	0.0	2.1
224	-1.89	0.0	2.1
225	-1.89	0.0	2.1
226	-1.885	0.0	2.1
227	-1.88	0.0	2.1
228	-1.88	0.0	2.1
229	-1.875	0.0	2.1
230	-1.075	0.03	6.3
231	-0.19	0.294	44.4
232	0.735	0.645	91.05
233	1.27	1.092	130.35
234	1.55	1.464	155.25
235	1.525	1.638	165.6
236	1.51	1.6395	165.6
237	1.495	1.6395	165.6
238	1.475	1.6395	165.6
239	1.46	1.6395	165.6
240	1.455	1.6395	165.6
241	1.44	1.6395	165.6
242	1.435	1.6395	165.6
243	1.42	1.6395	165.6
244	1.41	1.641	165.6
245	1.4	1.6395	165.6
246	1.39	1.6395	165.6
247	1.39	1.6395	165.6
248	1.38	1.641	165.6
249	1.37	1.638	165.6
250	1.365	1.6365	165.6
251	1.355	1.638	165.6
252	1.345	1.638	165.6
253	1.345	1.6395	165.6
254	1.335	1.6395	165.6
255	1.33	1.638	165.6
256	1.325	1.638	165.6
257	1.315	1.6365	165.45
258	1.305	1.6365	165.45
259	1.3	1.635	165.45
260	1.3	1.6365	165.45
261	1.295	1.635	165.45
262	1.295	1.6365	165.45
263	1.29	1.635	165.45
264	1.285	1.6335	165.45
265	1.28	1.635	165.45
266	1.275	1.635	165.45
267	1.265	1.635	165.45
268	1.265	1.6365	165.45
269	1.26	1.6335	165.45
270	1.26	1.6335	165.45
271	1.25	1.632	165.45
272	1.245	1.6335	165.3
273	1.245	1.6335	165.3
274	1.245	1.6335	165.45
275	1.235	1.635	165.3
276	1.235	1.6305	165.3
277	1.235	1.6335	165.3
278	1.23	1.6335	165.3
279	1.23	1.6305	165.3
280	1.23	1.632	165.3
281	1.225	1.6305	165.3
282	1.225	1.6305	165.15
283	1.215	1.629	165.15
284	1.215	1.629	165.15
285	1.21	1.629	165.15
286	1.21	1.629	165.15
287	1.215	1.6305	165.15
288	1.21	1.629	165.15
289	1.205	1.629	165.15
290	1.205	1.6305	165.15
291	1.2	1.6275	165.15
292	1.195	1.629	165.15
293	1.195	1.6305	165.15
294	1.195	1.6275	165.15
295	1.2	1.629	165.15
296	1.195	1.629	165.15
297	1.195	1.6275	165.15
298	1.19	1.6275	165.15
299	1.19	1.6275	165.15
300	1.185	1.6275	165.0
301	1.18	1.6275	165.0
302	1.185	1.6275	165.0
303	1.18	1.626	165.0
304	1.18	1.6245	165.0
305	1.185	1.626	165.0
306	1.18	1.6275	165.0
307	1.175	1.626	165.0
308	1.18	1.6245	165.0
309	1.175	1.6275	165.0
310	1.175	1.6245	165.0
311	1.17	1.6245	164.85
312	1.17	1.626	164.85
313	1.17	1.623	164.85
314	1.175	1.623	164.85
315	1.165	1.623	164.85
316	1.165	1.623	164.85
317	1.165	1.623	164.85
318	1.165	1.62	164.85
319	1.16	1.6245	164.85
320	1.165	1.623	164.85
321	1.16	1.623	164.85
322	1.16	1.6215	164.85
323	1.16	1.623	164.85
324	0.77	1.587	163.05
325	-0.535	1.1265	135.3
326	-2.32	0.384	59.55
327	-2.25	0.003	2.25
328	-2.23	0.0	2.25
329	-2.21	0.0	2.25
330	-2.19	0.0	2.25
331	-2.17	0.0	2.25
332	-2.16	0.0	2.25
333	-2.145	0.0	2.25
334	-2.13	0.0	2.25
335	-2.12	0.0	2.25
336	-2.11	0.0	2.1
337	-2.095	0.0	2.1
338	-2.085	0.0	2.1
339	-2.075	0.0	2.1
340	-2.07	0.0	2.1
341	-2.06	0.0	2.1
342	-2.055	0.0	2.1
343	-2.045	0.0	2.25
344	-2.035	0.0	2.1
345	-2.025	0.0	2.25
346	-2.02	0.0	2.25
347	-2.015	0.0	2.25
348	-2.005	0.0	2.25
349	-2.0	0.0	2.25
350	-1.995	0.0	2.25
351	-1.99	0.0	2.25
352	-1.985	0.0	2.25
353	-1.98	0.0	2.25
354	-1.975	0.0	2.25
355	-1.97	0.0	2.25
356	-1.965	0.0	2.25
357	-1.96	0.0	2.25
358	-1.955	0.0	2.25
359	-1.955	0.0	2.25
360	-1.945	0.0	2.25
361	-1.94	0.0	2.25
362	-1.94	0.0	2.25
363	-1.93	0.0	2.1
364	-1.925	0.0	2.25
365	-1.925	0.0	2.1
366	-1.92	-0.0015	2.1
367	-1.92	0.0	2.1
368	-1.915	0.0	2.1
369	-1.91	0.0	2.1
370	-1.91	0.0	2.1
371	-1.905	-0.0015	2.1
372	-1.9	0.0	2.1
373	-1.9	0.0	2.1
374	-1.895	0.0	2.1
375	-1.895	0.0	2.1
376	-1.89	0.0	2.25
377	-1.89	0.0	2.25
378	-1.885	0.0	2.1
379	-1.885	0.0	2.25
380	-1.88	0.0	2.25
381	-1.875	-0.0015	2.25
382	-1.88	0.0	2.25
383	-1.875	0.0	2.1
384	-1.875	0.0	2.25
385	-1.875	0.0	2.25
386	-1.875	0.0	2.25
387	-1.875	0.0	2.25
388	-1.875	0.0	2.25
389	-1.875	0.0	2.25
390	-1.875	0.0	2.1
391	-1.875	0.0	2.1
392	-1.875	0.0	2.1
393	-1.87	0.0	2.1
394	-1.87	0.0	2.25
395	-1.87	0.0	2.25
396	-1.865	0.0	2.25
397	-1.865	0.0	2.25
398	-1.865	0.0	2.25
399	-1.86	0.0	2.25
400	-1.855	0.0	2.25
401	-1.855	0.0	2.25
402	-1.85	-0.0015	2.25
403	-1.845	0.0	2.25
404	-1.84	0.0	2.25
405	-1.84	0.0	2.25
406	-1.835	0.0	2.1
407	-1.83	0.0	2.25
408	-1.83	0.0	2.25
409	-1.83	0.0	2.25
410	-1.825	0.0	2.25
411	-1.825	0.0	2.25
412	-1.825	0.0	2.25
413	-1.82	0.0	2.25
414	-1.82	0.0	2.25
415	-1.82	0.0	2.25
416	-1.815	0.0	2.25
417	-1.815	0.0	2.25
418	-1.81	0.0	2.25
419	-1.81	0.0	2.25
420	-1.81	0.0	2.25
421	-1.81	0.0	2.1
422	-1.81	0.0	2.25
423	-1.805	0.0	2.25
424	-1.8	0.0	2.25
425	-1.8	0.0	2.25
426	-1.795	0.0	2.25
427	-1.795	0.0	2.1
428	-1.795	0.0	2.25
429	-1.79	0.0	2.25
430	-1.785	0.0	2.25
431	-1.785	0.0	2.1
432	-1.78	0.0	2.25
433	-1.78	0.0	2.25
434	-1.78	0.0	2.25
435	-1.78	0.0	2.1
436	-1.775	0.0	2.1
437	-1.775	0.0	2.1
438	-1.77	0.0	2.25
439	-1.77	0.0	2.25
440	-1.77	0.0	2.25
441	-1.77	0.0	2.25
442	-1.765	0.0	2.25
443	-1.765	0.0	2.25
444	-1.765	0.0	2.25
445	-1.76	0.0	2.25
446	-1.76	0.0	2.25
447	-1.76	0.0	2.25
448	-1.755	0.0	2.1
449	-1.75	0.0	2.25
450	-1.75	0.0	2.25
451	-1.75	0.0	2.1
452	-1.75	0.0	2.25
453	-1.75	0.0	2.25
454	-1.75	0.0	2.25
455	-1.745	0.0	2.25
456	-1.745	0.0	2.1
457	-1.74	0.0	2.25
458	-1.74	0.0	2.1
459	-1.735	0.0	2.25
460	-1.735	0.0	2.25
461	-1.735	0.0	2.25
462	-1.73	0.0	2.25
463	-1.73	-0.0015	2.25
464	-1.725	0.0	2.25
465	-1.725	0.0	2.25
466	-1.72	0.0	2.25
467	-1.715	0.0	2.25
468	-1.715	0.0	2.25
469	-1.715	0.0	2.25
470	-1.71	0.0	2.25
471	-1.71	0.0	2.25
472	-1.705	0.0	2.25
473	-1.7	0.0	2.25
474	-1.695	0.0	2.25
475	-1.695	-0.0015	2.25
476	-1.695	0.0	2.25
477	-1.69	0.0	2.1
478	-1.695	0.0	2.1
479	-1.69	0.0	2.25
480	-1.69	0.0	2.25
481	-1.685	0.0	2.1
482	-1.68	0.0	2.1
483	-1.68	0.0	2.25
484	-1.675	0.0	2.1
485	-1.675	0.0	2.25
486	-1.675	0.0	2.1
487	-1.675	0.0	2.1
488	-1.67	0.0	2.25
489	-1.67	0.0	2.1
490	-1.665	0.0	2.1
491	-1.665	0.0	2.25
492	-1.665	0.0	2.25
493	-1.665	0.0	2.25
494	-1.665	0.0	2.1
495	-1.665	0.0	2.25
496	-1.665	0.0	2.1
497	-1.665	0.0	2.1
498	-1.665	0.0	2.1
499	-1.66	0.0	2.1
500	-1.66	0.0	2.1
501	-1.66	0.0	2.1
502	-1.66	0.0	2.1
503	-1.66	0.0	2.25
504	-1.66	0.0	2.1
505	-1.66	0.0	2.1
506	-1.66	0.0	2.1
507	-1.66	0.0	2.1
508	-1.655	0.0	2.1
509	-1.655	0.0	2.1
510	-1.655	0.0	2.25
511	-1.66	0.0	2.25
512	-1.655	0.0	2.1
513	-1.655	0.0	2.25
514	-1.65	-0.0015	2.1
515	-1.655	0.0	2.25
516	-1.655	0.0	2.25
517	-1.655	0.0	2.25
518	-1.655	0.0	2.25
519	-1.655	0.0	2.1
520	-1.65	0.0	2.25
521	-1.655	0.0	2.25
522	-1.655	0.0	2.25
523	-1.65	0.0	2.25
524	-1.65	0.0	2.25
525	-1.65	0.0	2.25
526	-1.65	0.0	2.25
527	-1.65	0.0	2.25
528	-1.65	0.0	2.25
529	-1.65	0.0	2.25
530	-1.65	0.0	2.1
531	-1.65	0.0	2.1
532	-1.65	0.0	2.25
533	-1.65	0.0	2.1
534	-1.645	0.0	2.1
535	-1.645	0.0	2.1
536	-1.645	0.0	2.1
537	-1.645	0.0	2.1
538	-1.64	0.0	2.1
539	-1.645	0.0	2.1
540	-1.645	0.0	2.1
541	-1.64	0.0	2.1
542	-1.64	0.0	2.1
543	-1.64	0.0	2.1
544	-1.64	0.0	2.1
545	-1.64	0.0	2.1
546	-1.635	0.0	2.1
547	-1.18	0.0	2.1
548	-0.045	0.0	2.1
549	-0.33	0.0	2.1
550	-0.54	0.0	2.1
551	-0.675	0.0	2.1
552	-0.775	0.0	2.1
553	-0.845	0.0	2.1
554	-0.91	0.0	2.1
555	-0.96	0.0	2.1
556	-1.0	0.0	2.1
557	-1.04	0.0	2.1
558	-1.065	0.0	2.1
559	-1.095	0.0	2.1
560	-1.125	-0.0015	2.1
561	-1.15	0.0	2.1
562	-1.165	0.0	2.1
563	-1.185	0.0	2.1
564	-1.2	0.0	2.1
565	-1.205	0.0	2.1
566	-1.22	0.0	2.1
567	-1.23	0.0	2.1
568	-1.245	-0.0015	2.1
569	-1.255	0.0	2.1
570	-1.265	0.0	2.1
571	-1.275	0.0	2.1
572	-1.28	0.0	2.1
573	-1.29	0.0	2.1
574	-1.295	0.0	2.1
575	-1.3	0.0	2.1
576	-1.305	0.0	2.1
577	-1.315	0.0	2.1
578	-1.32	0.0	2.1
579	-1.325	0.0	2.1
580	-1.325	0.0	2.1
581	-1.33	0.0	2.1
582	-1.335	0.0	2.1
583	-1.335	0.0	2.1
584	-1.345	0.0	2.1
585	-1.345	0.0	2.1
586	-1.345	0.0	2.1
587	-1.35	0.0	2.1
588	-1.355	0.0	2.1
589	-1.355	0.0	2.1
590	-1.36	0.0	2.1
591	-1.36	0.0	2.1
592	-1.365	0.0	2.1
593	-1.365	0.0	2.1
594	-1.37	0.0	2.1
595	-1.37	0.0	2.1
596	-1.37	0.0	2.1
597	-1.37	0.0	2.1
598	-1.375	0.0	2.1
599	-1.38	0.0	2.25
600	-1.38	0.0	2.1
601	-1.38	0.0	2.25
602	-1.38	0.0	2.1
603	-1.385	0.0	2.1
604	-1.385	0.0	2.25
605	-1.385	0.0	2.1
606	-1.385	0.0	2.1
607	-1.39	0.0	2.1
608	-1.385	0.0	2.1
609	-1.385	-0.0015	2.25
610	-1.385	0.0	2.1
611	-1.385	0.0	2.1
612	-1.385	0.0	2.1
613	-1.385	0.0	2.1
614	-1.385	0.0	2.1
615	-1.385	0.0	2.1
616	-1.39	0.0	2.1
617	-1.385	0.0	2.1
618	-1.39	0.0	2.1
619	-1.395	0.0	2.1
620	-1.39	0.0	2.1
621	-1.39	0.0	2.1
622	-1.39	0.0	2.1
623	-1.39	0.0	2.1
624	-1.39	0.0	2.25
625	-1.39	0.0	2.1
626	-1.39	0.0	2.25
627	-1.395	0.0	2.25
628	-1.395	0.0	2.1
629	-1.395	0.0	2.25
630	-1.395	0.0	2.1
631	-1.395	0.0	2.1
632	-1.395	0.0	2.1
633	-1.395	0.0	2.1
634	-1.395	0.0	2.1
635	-1.4	0.0	2.1
636	-1.395	0.0	2.1
637	-1.4	0.0	2.1
638	-1.4	0.0	2.1
639	-1.4	0.0	2.1
640	-1.395	0.0	2.1
641	-1.395	0.0	2.1
642	-1.395	0.0	2.1
643	-1.4	0.0	2.1
644	-1.4	0.0	2.1
645	-1.4	0.0	2.1
646	-1.4	0.0	2.1
647	-1.4	0.0	2.1
648	-1.4	0.0	2.1
649	-1.4	0.0	2.1
650	-1.4	0.0	2.1
651	-1.4	0.0	2.1
652	-1.4	0.0	2.1
653	-1.4	0.0	2.1
654	-1.405	0.0	2.1
655	-1.405	0.0	2.1
656	-1.405	0.0	2.1
657	-1.4	0.0	2.1
658	-1.4	0.0	2.25
659	-1.4	0.0	2.1
660	-1.4	0.0	2.1
661	-1.4	0.0	2.1
662	-1.4	0.0	2.25
663	-1.4	0.0	2.1
664	-1.4	0.0	2.25
665	-1.4	0.0	2.25
666	-1.4	0.0	2.25
667	-1.4	0.0	2.25
668	-1.4	0.0	2.1
669	-1.4	0.0105	3.75
670	-0.775	0.678	90.0
671	1.44	1.35	148.35
672	1.83	1.6065	163.5
673	2.01	1.662	166.8
674	1.965	1.662	166.65
675	1.93	1.662	166.8
676	1.905	1.6605	166.8
677	1.88	1.659	166.65
678	1.86	1.662	166.65
679	1.835	1.6605	166.65
680	1.81	1.662	166.65
681	1.795	1.662	166.65
682	1.775	1.659	166.65
683	1.76	1.6605	166.65
684	1.74	1.6605	166.65
685	1.725	1.6605	166.65
686	1.71	1.6605	166.65
687	1.695	1.6575	166.65
688	1.68	1.659	166.65
689	1.67	1.6605	166.65
690	1.65	1.6605	166.65
691	1.645	1.6605	166.65
692	1.64	1.6575	166.65
693	1.625	1.659	166.65
694	1.61	1.6575	166.5
695	1.6	1.6575	166.5
696	1.59	1.656	166.5
697	1.585	1.6575	166.5
698	1.57	1.6575	166.5
699	1.565	1.656	166.5
700	1.555	1.656	166.5
701	1.55	1.656	166.5
702	1.545	1.6545	166.5
703	1.53	1.6545	166.35
704	1.525	1.653	166.35
705	1.52	1.6545	166.5
706	1.51	1.656	166.35
707	1.51	1.6545	166.35
708	1.505	1.6545	166.35
709	1.49	1.6545	166.35
710	1.49	1.6545	166.35
711	1.485	1.6545	166.35
712	1.48	1.6545	166.35
713	1.475	1.6545	166.35
714	1.465	1.656	166.35
715	1.46	1.6545	166.35
716	1.455	1.6545	166.35
717	1.455	1.6545	166.35
718	1.445	1.653	166.2
719	1.44	1.653	166.2
720	1.435	1.6515	166.2
721	1.43	1.6515	166.2
722	1.425	1.6515	166.2
723	1.425	1.65	166.2
724	1.42	1.65	166.2
725	1.41	1.6515	166.2
726	1.405	1.65	166.2
727	1.405	1.6515	166.2
728	1.4	1.65	166.2
729	1.395	1.647	166.05
730	1.4	1.65	166.05
731	1.395	1.6485	166.05
732	1.39	1.647	166.05
733	1.385	1.647	166.05
734	1.38	1.6455	166.05
735	1.37	1.647	166.05
736	1.37	1.647	166.05
737	1.37	1.6455	166.05
738	1.365	1.6455	165.9
739	1.36	1.6455	165.9
740	1.355	1.644	165.9
741	1.36	1.6455	165.9
742	1.355	1.6455	165.9
743	1.355	1.6455	165.9
744	1.35	1.644	165.9
745	1.34	1.644	165.9
746	1.34	1.644	165.9
747	1.335	1.644	165.9
748	1.33	1.644	165.9
749	1.33	1.6455	165.9
750	1.33	1.6455	165.9
751	1.325	1.644	165.9
752	1.33	1.644	165.9
753	1.33	1.644	165.9
754	1.325	1.644	165.9
755	1.325	1.644	165.9
756	1.32	1.644	165.9
757	1.315	1.6425	165.9
758	1.315	1.6425	165.75
759	1.31	1.644	165.75
760	1.31	1.6425	165.75
761	1.31	1.6425	165.75
762	1.305	1.641	165.75
763	1.305	1.641	165.75
764	1.305	1.641	165.75
765	1.3	1.6425	165.75
766	1.295	1.641	165.75
767	1.295	1.6395	165.75
768	1.29	1.6395	165.75
769	1.29	1.6395	165.75
770	1.29	1.6395	165.6
771	1.29	1.6395	165.6
772	1.29	1.6395	165.6
773	1.285	1.638	165.6
774	1.285	1.6365	165.6
775	1.285	1.6395	165.6
776	1.285	1.638	165.6
777	1.28	1.638	165.6
778	1.28	1.6365	165.6
779	1.27	1.6365	165.45
780	1.27	1.6365	165.45
781	1.27	1.635	165.45
782	1.265	1.6335	165.45
783	1.265	1.6335	165.45
784	1.265	1.6335	165.45
785	1.265	1.6335	165.45
786	1.27	1.6365	165.45
787	1.265	1.6365	165.45
788	1.265	1.635	165.45
789	1.255	1.635	165.45
790	1.255	1.635	165.45
791	1.255	1.6335	165.45
792	1.255	1.6335	165.45
793	1.255	1.6335	165.45
794	1.25	1.635	165.45
795	1.25	1.6335	165.45
796	1.245	1.6335	165.3
797	1.24	1.632	165.3
798	1.245	1.632	165.3
799	1.245	1.6335	165.3
800	1.24	1.632	165.3
801	1.24	1.632	165.3
802	1.24	1.632	165.3
803	1.24	1.6305	165.3
804	1.235	1.6305	165.15
805	1.235	1.6305	165.15
806	1.235	1.6305	165.3
807	1.235	1.6275	165.15
808	1.235	1.629	165.15
809	1.23	1.629	165.15
810	1.23	1.6275	165.15
811	1.23	1.6275	165.15
812	1.225	1.6275	165.15
813	1.23	1.6275	165.15
814	1.225	1.6305	165.15
815	1.225	1.6305	165.15
816	1.22	1.629	165.15
817	1.225	1.629	165.15
818	1.225	1.629	165.15
819	1.225	1.6275	165.0
820	1.22	1.6275	165.0
821	1.22	1.6275	165.0
822	1.22	1.626	165.0
823	1.215	1.629	165.0
824	1.22	1.6245	165.0
825	1.215	1.626	165.0
826	1.215	1.626	165.0
827	1.21	1.626	165.0
828	1.215	1.626	165.0
829	1.215	1.626	165.0
830	1.21	1.626	165.0
831	1.21	1.626	165.0
832	1.215	1.626	165.0
833	1.21	1.6245	165.0
834	1.205	1.626	165.0
835	1.21	1.626	165.0
836	1.21	1.626	165.0
837	1.21	1.6275	165.0
838	1.21	1.626	165.0
839	1.205	1.623	165.0
840	1.205	1.6245	164.85
841	1.2	1.623	164.85
842	1.2	1.6245	164.85
843	1.2	1.6245	164.85
844	1.2	1.626	164.85
845	1.2	1.6245	164.85
846	1.205	1.623	164.85
847	1.2	1.623	164.85
848	1.2	1.623	164.85
849	1.195	1.623	164.85
850	1.2	1.6245	164.85
851	1.195	1.6245	164.85
852	1.2	1.6245	164.85
853	1.195	1.6245	164.85
854	1.2	1.623	164.85
855	1.2	1.623	164.85
856	1.195	1.6215	164.85
857	1.195	1.6215	164.7
858	1.19	1.6215	164.7
859	1.195	1.62	164.7
860	1.19	1.6215	164.7
861	1.19	1.623	164.7
862	1.195	1.6215	164.7
863	1.19	1.6215	164.7
864	1.185	1.62	164.7
865	1.185	1.62	164.7
866	1.185	1.6215	164.7
867	1.19	1.62	164.7
868	1.19	1.62	164.7
869	1.185	1.6215	164.55
870	1.185	1.6185	164.55
871	1.185	1.6185	164.55
872	1.185	1.62	164.55
873	1.185	1.617	164.55
874	1.18	1.6185	164.55
875	1.18	1.6185	164.55
876	1.185	1.617	164.55
877	1.185	1.617	164.55
878	1.19	1.617	164.55
879	1.185	1.6155	164.55
880	1.185	1.617	164.55
881	1.18	1.6185	164.55
882	1.175	1.6185	164.55
883	1.175	1.6155	164.55
884	1.175	1.617	164.55
885	1.18	1.617	164.55
886	1.18	1.6185	164.4
887	1.18	1.6155	164.4
888	1.185	1.614	164.4
889	1.18	1.614	164.4
890	1.18	1.6155	164.4
891	1.18	1.617	164.4
892	1.18	1.614	164.4
893	1.175	1.6125	164.4
894	1.175	1.6125	164.25
895	1.17	1.6125	164.25
896	1.175	1.6125	164.25
897	1.175	1.611	164.25
898	1.17	1.611	164.25
899	1.18	1.614	164.25
900	1.18	1.6125	164.25
901	1.175	1.6125	164.25
902	1.18	1.611	164.25
903	1.17	1.611	164.1
904	1.17	1.611	164.1
905	1.165	1.6095	164.1
906	1.165	1.6095	164.1
907	1.17	1.6095	164.1
908	1.165	1.6095	164.1
909	1.165	1.6095	164.1
910	1.16	1.6095	164.1
911	1.165	1.608	164.1
912	1.17	1.6065	163.95
913	1.155	1.6065	163.95
914	1.16	1.6065	163.95
915	1.165	1.608	163.95
916	1.16	1.608	163.95
917	1.155	1.608	163.95
918	1.16	1.6065	163.95
919	1.165	1.6065	163.95
920	1.16	1.608	163.95
921	1.16	1.6065	163.95
922	1.16	1.605	163.95
923	1.16	1.608	163.95
924	1.16	1.6065	163.95
925	1.155	1.6065	163.8
926	1.155	1.6065	163.95
927	0.31	1.2705	144.0
928	-1.915	0.306	48.0
929	-2.165	0.0015	2.4
930	-2.11	0.0	2.25
931	-2.06	0.0	2.25
932	-2.025	0.0	2.25
933	-1.99	0.0	2.25
934	-1.96	0.0	2.25
935	-1.93	0.0	2.25
936	-1.905	0.0	2.25
937	-1.885	0.0	2.25
938	-1.865	0.0	2.25
939	-1.845	0.0	2.25
940	-1.825	0.0	2.25
941	-1.81	0.0	2.25
942	-1.79	0.0	2.25
943	-1.78	0.0	2.25
944	-1.765	0.0	2.25
945	-1.75	0.0	2.25
946	-1.74	0.0	2.25
947	-1.73	0.0	2.25
948	-1.72	0.0	2.25
949	-1.71	0.0	2.25
950	-1.7	0.0	2.25
951	-1.69	0.0	2.25
952	-1.68	0.0	2.25
953	-1.675	0.0	2.25
954	-1.665	0.0	2.25
955	-1.655	0.0	2.25
956	-1.645	0.0	2.25
957	-1.64	0.0	2.25
958	-1.63	0.0	2.25
959	-1.625	0.0	2.25
960	-1.615	0.0	2.25
961	-1.61	0.0	2.25
962	-1.605	0.0	2.25
963	-1.6	0.0	2.25
964	-1.59	-0.0015	2.25
965	-1.585	0.0	2.25
966	-1.58	0.0	2.25
967	-1.575	0.0	2.25
968	-1.57	0.0	2.25
969	-1.565	0.0	2.25
970	-1.56	0.0	2.25
971	-1.555	0.0	2.25
972	-1.555	0.0	2.25
973	-1.55	0.0	2.25
974	-1.545	0.0	2.25
975	-1.54	0.0	2.25
976	-1.535	0.0	2.25
977	-1.535	0.0	2.25
978	-1.53	0.0	2.25
979	-1.525	0.0	2.25
980	-1.52	0.0	2.25
981	-1.52	0.0	2.25
982	-1.515	0.0	2.25
983	-1.51	0.0	2.25
984	-1.505	0.0	2.25
985	-1.5	0.0	2.25
986	-1.5	0.0	2.25
987	-1.495	0.0	2.25
988	-1.49	0.0	2.25
989	-1.49	0.0	2.25
990	-1.485	0.0	2.25
991	-1.48	0.0	2.25
992	-1.48	0.0	2.25
993	-1.475	0.0	2.25
994	-1.475	0.0	2.25
995	-1.475	0.0	2.25
996	-1.47	0.0	2.25
997	-1.47	0.0	2.25
998	-1.465	0.0	2.25
999	-1.47	0.0	2.25
1000	-1.465	0.0	2.25
1001	-1.46	0.0	2.25
1002	-1.46	0.0	2.25
1003	-1.455	0.0	2.25
1004	-1.455	0.0	2.25
1005	-1.45	0.0	2.25
1006	-1.445	0.0	2.25
1007	-1.445	0.0	2.25
1008	-1.44	0.0	2.25
1009	-1.44	0.0	2.25
1010	-1.44	0.0	2.25
1011	-1.435	0.0	2.25
1012	-1.435	0.0	2.25
1013	-1.435	0.0	2.25
1014	-1.43	0.0	2.25
1015	-1.43	0.0	2.25
1016	-1.43	0.0	2.25
1017	-1.425	0.0	2.25
1018	-1.425	0.0	2.25
1019	-1.425	0.0	2.25
1020	-1.425	0.0	2.25
1021	-1.42	0.0	2.25
1022	-1.42	0.0	2.25
1023	-1.42	0.0	2.25
1024	-1.415	0.0	2.25
1025	-1.415	0.0	2.25
1026	-1.41	0.0	2.25
1027	-1.41	0.0	2.25
1028	-1.41	0.0	2.25
1029	-1.41	0.0	2.25
1030	-1.405	0.0	2.25
1031	-1.405	0.0	2.25
1032	-1.405	0.0	2.25
1033	-1.405	0.0	2.25
1034	-1.405	0.0	2.25
1035	-1.405	0.0	2.25
1036	-1.4	0.0	2.25
1037	-1.4	0.0	2.25
1038	-1.395	0.0	2.25
1039	-1.395	0.0	2.25
1040	-1.4	0.0	2.25
1041	-1.395	0.0	2.25
1042	-1.395	0.0	2.25
1043	-1.395	0.0	2.25
1044	-1.395	0.0	2.25
1045	-1.395	0.0	2.25
1046	-1.395	0.0	2.25
1047	-1.395	0.0	2.25
1048	-1.39	0.0	2.25
1049	-1.39	0.0	2.25
1050	-1.385	0.0	2.25
1051	-1.385	0.0	2.25
1052	-1.385	0.0	2.25
1053	-1.385	0.0	2.25
1054	-1.385	0.0	2.25
1055	-1.385	0.0	2.25
1056	-1.385	0.0	2.25
1057	-1.385	0.0	2.25
1058	-1.38	0.0	2.25
1059	-1.38	0.0	2.25
1060	-1.38	0.0	2.25
1061	-1.38	0.0	2.25
1062	-1.38	0.0	2.25
1063	-1.375	0.0	2.25
1064	-1.38	0.0	2.25
1065	-1.38	0.0	2.25
1066	-1.38	0.0	2.25
1067	-1.375	0.0	2.25
1068	-1.375	0.0	2.25
1069	-1.375	0.0	2.25
1070	-1.375	0.0	2.25
1071	-1.37	0.0	2.25
1072	-1.375	0.0	2.25
1073	-1.37	0.0	2.25
1074	-1.37	0.0	2.25
1075	-1.37	0.0	2.25
1076	-1.365	0.0	2.25
1077	-1.37	0.0	2.25
1078	-1.37	0.0	2.25
1079	-1.365	0.0	2.25
1080	-1.365	0.0	2.25
1081	-1.365	0.0	2.25
1082	-1.365	0.0	2.25
1083	-1.36	0.0	2.25
1084	-1.36	0.0	2.25
1085	-1.365	0.0	2.25
1086	-1.365	0.0	2.25
1087	-1.36	0.0	2.25
1088	-1.36	0.0	2.25
1089	-1.36	0.0	2.25
1090	-1.36	0.0	2.25
1091	-1.36	0.0	2.25
1092	-1.36	0.0	2.25
1093	-1.355	0.0	2.25
1094	-1.355	0.0	2.1
1095	-1.355	0.0	2.25
1096	-1.355	0.0	2.25
1097	-1.355	0.0	2.25
1098	-1.355	0.0	2.25
1099	-1.355	0.0	2.1
1100	-1.355	0.0	2.25
1101	-1.355	0.0	2.25
1102	-1.355	0.0	2.25
1103	-1.35	0.0	2.25
1104	-1.355	0.0	2.1
1105	-1.35	0.0	2.25
1106	-1.35	0.0	2.25
1107	-1.35	0.0	2.25
1108	-1.35	0.0	2.25
1109	-1.35	0.0	2.25
1110	-1.345	0.0	2.25
1111	-1.35	0.0	2.25
1112	-1.345	0.0	2.25
1113	-1.35	0.0	2.25
1114	-1.35	0.0	2.25
1115	-1.35	0.0	2.25
1116	-1.345	0.0	2.25
1117	-1.345	0.0	2.25
1118	-1.35	0.0	2.25
1119	-1.35	0.0	2.25
1120	-1.345	0.0	2.25
1121	-1.345	0.0	2.25
1122	-1.345	0.0	2.25
1123	-1.345	0.0	2.25
1124	-1.345	0.0	2.25
1125	-1.345	0.0	2.25
1126	-1.345	0.0	2.25
1127	-1.345	0.0	2.25
1128	-1.345	0.0	2.25
1129	-1.34	0.0	2.25
1130	-1.345	0.0	2.25
1131	-1.345	0.0	2.25
1132	-1.345	0.0	2.25
1133	-1.34	0.0	2.25
1134	-1.34	0.0	2.25
1135	-1.34	0.0	2.25
1136	-1.345	0.0	2.25
1137	-1.345	0.0	2.25
1138	-1.345	0.0	2.25
1139	-1.34	0.0	2.25
1140	-1.34	0.0	2.25
1141	-1.34	0.0	2.25
1142	-1.34	0.0	2.25
1143	-1.34	0.0	2.25
1144	-1.34	0.0	2.25
1145	-1.34	0.0	2.25
1146	-1.34	0.0	2.25
1147	-1.34	0.0	2.25
1148	-1.34	0.0	2.25
1149	-1.34	0.0	2.25
1150	-1.335	0.0	2.25
1151	-1.335	0.0	2.25
1152	-1.34	0.0	2.25
1153	-1.34	0.0	2.25
1154	-1.34	0.0	2.25
1155	-1.34	0.0	2.25
1156	-1.34	0.0	2.25
1157	-1.34	0.0	2.25
1158	-1.34	0.0	2.25
1159	-1.34	0.0	2.25
1160	-1.34	0.0	2.25
1161	-1.34	0.0	2.25
1162	-1.335	0.0	2.25
1163	-1.335	0.0	2.25
1164	-1.33	0.0	2.25
1165	-1.33	0.0	2.25
1166	-1.325	0.0	2.25
1167	-1.325	0.0	2.25
1168	-1.33	0.0	2.25
1169	-1.33	0.0	2.25
1170	-1.33	0.0	2.25
1171	-1.33	0.0	2.25
1172	-1.33	0.0	2.25
1173	-1.33	0.0	2.25
1174	-1.33	0.0	2.25
1175	-1.325	0.0	2.25
1176	-1.33	0.0	2.25
1177	-1.325	0.0	2.25
1178	-1.325	0.0	2.25
1179	-1.325	0.0	2.25
1180	-1.33	0.0	2.25
1181	-1.33	0.0	2.25
1182	-1.33	0.0	2.25
1183	-1.33	0.0	2.25
1184	-1.33	0.0	2.25
1185	-1.325	0.0	2.25
1186	-1.325	0.0	2.25
1187	-1.325	0.0	2.25
1188	-1.325	0.0	2.25
1189	-1.325	0.0	2.25
1190	-1.325	0.0	2.25
1191	-1.33	0.0	2.25
1192	-1.325	0.0	2.25
1193	-1.33	0.0	2.25
1194	-1.325	0.0	2.25
1195	-1.325	0.0	2.25
1196	-1.325	0.0	2.25
1197	-1.325	0.0	2.25
1198	-1.325	0.0	2.25
1199	-1.325	0.0	2.25
1200	-1.325	0.0	2.25
1201	-1.325	0.0	2.25
1202	-1.325	-0.0015	2.25
1203	-1.325	0.0	2.25
1204	-1.33	0.0	2.25
1205	-1.325	0.0	2.25
1206	-1.32	0.0	2.25
1207	-1.325	0.0	2.25
1208	-1.325	0.0	2.25
1209	-1.325	0.0	2.25
1210	-1.325	0.0	2.25
1211	-1.32	0.0	2.25
1212	-1.325	0.0	2.25
1213	-1.315	0.0	2.25
1214	-1.295	0.0	2.25
1215	-1.28	0.0	2.25
1216	-1.265	0.0	2.25
1217	-1.25	0.0	2.25
1218	-1.24	0.0	2.25
1219	-1.23	0.0	2.25
1220	-1.225	0.0	2.25
1221	-1.22	-0.0015	2.25
1222	-1.215	0.0	2.25
1223	-1.205	0.0	2.25
1224	-1.195	0.0	2.25
1225	-1.18	0.0	2.25
1226	-1.17	0.0	2.25
1227	-1.165	0.0	2.25
1228	-1.165	0.0	2.25
1229	-1.165	0.0	2.25
1230	-1.16	0.0	2.25
1231	-1.155	0.0	2.25
1232	-1.155	0.0	2.25
1233	-1.15	0.0	2.25
1234	-1.15	0.0	2.25
1235	-1.145	0.0	2.25
1236	-1.145	0.0	2.25
1237	-1.145	0.0	2.25
1238	-1.14	0.0	2.25
1239	-1.14	-0.0015	2.25
1240	-1.135	0.0	2.25
1241	-1.13	0.0	2.25
1242	-1.13	0.0	2.25
1243	-1.125	0.0	2.25
1244	-1.125	0.0	2.25
1245	-1.125	0.0	2.25
1246	-1.12	0.0	2.25
1247	-1.12	0.0	2.25
1248	-1.12	0.0	2.25
1249	-1.12	0.0	2.25
1250	-1.12	0.0	2.25
1251	-1.12	0.0	2.25
1252	-1.12	0.0	2.25
1253	-1.115	0.0	2.25
1254	-1.115	0.0	2.25
1255	-1.115	0.0	2.25
1256	-1.11	0.0	2.25
1257	-1.11	0.0	2.25
1258	-1.105	0.0	2.25
1259	-1.105	0.0	2.25
1260	-1.105	0.0	2.25
1261	-1.1	0.0	2.25
1262	-1.1	-0.0015	2.25
1263	-1.1	0.0	2.25
1264	-1.1	0.0	2.25
1265	-1.1	0.0	2.25
1266	-1.1	0.0	2.25
1267	-1.1	0.0	2.25
1268	-1.1	0.0	2.25
1269	-1.095	0.0	2.25
1270	-1.095	0.0	2.25
1271	-1.09	0.0	2.25
1272	-1.09	0.0	2.25
1273	-1.09	0.0	2.25
1274	-1.09	0.0	2.25
1275	-1.09	0.0	2.25
1276	-1.09	0.0	2.25
1277	-1.09	0.0	2.25
1278	-1.09	0.0	2.25
1279	-1.09	0.0	2.25
1280	-1.095	0.0	2.25
1281	-1.09	0.0	2.25
1282	-1.09	0.0	2.25
1283	-1.085	0.0	2.25
1284	-1.085	0.0	2.25
1285	-1.085	0.0	2.25
1286	-1.085	0.0	2.25
1287	-1.085	-0.0015	2.25
1288	-1.085	0.0	2.25
1289	-1.085	0.0	2.25
1290	-1.08	0.0	2.25
1291	-1.085	0.0	2.25
1292	-1.085	0.0	2.25
1293	-1.085	0.0	2.25
1294	-1.08	0.0	2.25
1295	-1.08	0.0	2.25
1296	-1.08	0.0	2.25
1297	-1.08	0.0	2.25
1298	-1.08	0.0	2.25
1299	-1.08	0.0	2.25
1300	-1.08	0.0	2.25
1301	-1.075	0.0	2.25
1302	-1.075	0.0	2.25
1303	-1.075	0.0	2.25
1304	-1.075	0.0	2.25
1305	-1.075	0.0	2.25
1306	-1.075	0.0	2.25
1307	-1.075	0.0	2.25
1308	-1.07	0.0	2.25
1309	-1.07	0.0	2.25
1310	-1.075	0.0	2.25
1311	-1.075	0.0	2.25
1312	-1.07	-0.0015	2.25
1313	-1.07	-0.0015	2.25
1314	-1.07	0.0	2.25
1315	-1.065	0.0	2.25
1316	-1.065	0.0	2.25
1317	-1.065	0.0	2.25
1318	-1.065	0.0	2.25
1319	-1.07	0.0	2.25
1320	-1.07	0.0	2.25
1321	-1.07	0.0	2.25
1322	-1.065	0.0	2.25
1323	-1.065	0.0	2.25
1324	-1.065	0.0	2.25
1325	-1.06	0.0	2.25
1326	-1.06	0.0	2.25
1327	-1.06	0.0	2.25
1328	-1.06	0.0	2.25
1329	-1.06	0.0	2.25
1330	-1.06	0.0	2.25
1331	-1.06	0.0	2.25
1332	-1.06	0.0	2.25
1333	-1.06	0.0	2.25
1334	-1.06	0.0	2.25
1335	-1.06	0.0	2.25
1336	-1.06	0.0	2.25
1337	-1.055	-0.0015	2.25
1338	-1.055	0.0	2.25
1339	-1.055	0.0	2.25
1340	-1.055	0.0	2.25
1341	-1.055	0.0	2.25
1342	-1.055	0.0	2.25
1343	-1.055	0.0	2.25
1344	-1.06	0.0	2.25
1345	-1.055	0.0	2.25
1346	-1.055	0.0	2.25
1347	-1.055	0.0	2.25
1348	-1.055	0.0	2.25
1349	-1.055	0.0	2.25
1350	-1.055	0.0	2.25
1351	-1.055	0.0	2.25
1352	-1.055	0.0	2.25
1353	-1.06	0.0	2.25
1354	-1.055	0.0	2.25
1355	-1.055	0.0	2.25
1356	-1.055	0.0	2.25
1357	-1.055	0.0	2.25
1358	-1.055	0.0	2.25
1359	-1.055	0.0	2.25
1360	-1.055	0.0	2.25
1361	-1.05	0.0	2.25
1362	-1.05	0.0	2.25
1363	-1.055	0.0	2.25
1364	-1.055	0.0	2.25
1365	-1.055	0.0	2.25
1366	-1.055	0.0	2.25
1367	-1.055	0.0	2.25
1368	-1.055	0.0	2.25
1369	-1.05	0.0	2.25
1370	-1.055	0.0	2.25
1371	-1.04	0.0	2.25
1372	-1.035	0.0	2.25
1373	-1.04	0.0	2.25
1374	-1.04	0.0	2.25
1375	-1.05	0.0	2.25
1376	-1.05	0.0	2.25
1377	-1.05	0.0	2.25
1378	-1.05	0.0105	3.9
1379	0.425	0.54	75.6
1380	2.02	1.4085	150.9
1381	2.245	1.6545	166.05
1382	2.16	1.6545	166.05
1383	2.095	1.6545	166.2
1384	2.04	1.6545	166.2
1385	1.995	1.6545	166.05
1386	1.945	1.656	166.05
1387	1.91	1.6545	166.2
1388	1.87	1.6545	166.05
1389	1.835	1.6545	166.2
1390	1.8	1.6545	166.05
1391	1.77	1.6545	166.05
1392	1.74	1.653	166.05
1393	1.715	1.653	166.05
1394	1.695	1.653	166.05
1395	1.67	1.6515	166.05
1396	1.65	1.653	166.05
1397	1.625	1.6515	165.9
1398	1.61	1.6515	165.9
1399	1.595	1.6515	166.05
1400	1.57	1.65	166.05
1401	1.555	1.6515	165.9
1402	1.545	1.6485	165.9
1403	1.525	1.6485	165.9
1404	1.515	1.65	165.9
1405	1.505	1.65	165.9
1406	1.49	1.65	165.9
1407	1.48	1.6485	165.9
1408	1.465	1.65	165.9
1409	1.45	1.6485	165.9
1410	1.44	1.6485	165.9
1411	1.43	1.65	165.9
1412	1.42	1.6485	165.9
1413	1.415	1.6485	165.9
1414	1.405	1.65	165.9
1415	1.39	1.647	165.75
1416	1.385	1.6485	165.75
1417	1.375	1.647	165.75
1418	1.365	1.6455	165.75
1419	1.36	1.644	165.75
1420	1.35	1.6455	165.75
1421	1.34	1.6455	165.75
1422	1.335	1.6455	165.75
1423	1.325	1.6455	165.75
1424	1.32	1.6455	165.75
1425	1.31	1.6455	165.75
1426	1.31	1.6455	165.75
1427	1.3	1.644	165.75
1428	1.3	1.644	165.6
1429	1.29	1.6455	165.75
1430	1.29	1.644	165.6
1431	1.285	1.644	165.6
1432	1.275	1.644	165.6
1433	1.265	1.6425	165.6
1434	1.265	1.644	165.6
1435	1.26	1.6425	165.6
1436	1.255	1.6425	165.6
1437	1.245	1.641	165.6
1438	1.245	1.641	165.6
1439	1.24	1.6425	165.6
1440	1.235	1.6425	165.45
1441	1.225	1.6395	165.45
1442	1.23	1.6395	165.45
1443	1.225	1.6395	165.45
1444	1.22	1.638	165.45
1445	1.21	1.6395	165.45
1446	1.205	1.6395	165.45
1447	1.2	1.638	165.45
1448	1.2	1.638	165.3
1449	1.195	1.638	165.3
1450	1.19	1.6365	165.45
1451	1.19	1.638	165.45
1452	1.18	1.638	165.3
1453	1.185	1.638	165.45
1454	1.175	1.638	165.3
1455	1.165	1.638	165.3
1456	1.17	1.638	165.3
1457	1.165	1.6365	165.3
1458	1.155	1.6365	165.3
1459	1.155	1.635	165.3
1460	1.16	1.635	165.3
1461	1.155	1.6365	165.3
1462	1.15	1.6365	165.3
1463	1.145	1.6365	165.3
1464	1.145	1.638	165.3
1465	1.14	1.635	165.3
1466	1.135	1.635	165.3
1467	1.135	1.635	165.3
1468	1.13	1.635	165.15
1469	1.13	1.635	165.15
1470	1.13	1.6335	165.15
1471	1.125	1.6335	165.15
1472	1.12	1.6335	165.15
1473	1.12	1.635	165.15
1474	1.125	1.6335	165.15
1475	1.115	1.632	165.0
1476	1.11	1.6305	165.0
1477	1.11	1.6305	165.0
1478	1.115	1.6305	165.0
1479	1.11	1.632	165.0
1480	1.105	1.629	165.0
1481	1.1	1.629	165.0
1482	1.1	1.629	165.0
1483	1.095	1.6275	165.0
1484	1.09	1.629	164.85
1485	1.09	1.629	165.0
1486	1.085	1.629	164.85
1487	1.08	1.6275	164.85
1488	1.08	1.629	164.85
1489	1.08	1.629	164.85
1490	1.08	1.6275	164.85
1491	1.075	1.6275	164.85
1492	1.08	1.6275	164.85
1493	1.075	1.6275	164.85
1494	1.07	1.6275	164.85
1495	1.07	1.626	164.85
1496	1.065	1.626	164.85
1497	1.06	1.626	164.85
1498	1.065	1.626	164.7
1499	1.065	1.626	164.7
1500	1.06	1.626	164.7
1501	1.055	1.626	164.7
1502	1.06	1.623	164.7
1503	1.065	1.6245	164.7
1504	1.06	1.626	164.7
1505	1.055	1.626	164.7
1506	1.06	1.6275	164.7
1507	1.055	1.626	164.7
1508	1.055	1.626	164.7
1509	1.05	1.6245	164.7
1510	1.05	1.6245	164.7
1511	1.045	1.623	164.7
1512	1.05	1.623	164.7
1513	1.04	1.623	164.7
1514	1.04	1.623	164.55
1515	1.035	1.623	164.55
1516	1.035	1.6215	164.55
1517	1.03	1.623	164.55
1518	1.03	1.6215	164.55
1519	1.03	1.6215	164.55
1520	1.025	1.623	164.55
1521	1.02	1.623	164.4
1522	1.025	1.62	164.4
1523	1.025	1.623	164.55
1524	1.025	1.62	164.55
1525	1.02	1.6215	164.4
1526	1.025	1.6215	164.4
1527	1.02	1.62	164.4
1528	1.02	1.6185	164.4
1529	1.025	1.6185	164.4
1530	1.02	1.617	164.4
1531	1.015	1.6185	164.4
1532	1.02	1.617	164.4
1533	1.015	1.6185	164.4
1534	1.015	1.62	164.4
1535	1.01	1.6185	164.4
1536	1.015	1.617	164.4
1537	1.015	1.6185	164.4
1538	1.01	1.6185	164.4
1539	1.01	1.62	164.4
1540	1.005	1.617	164.25
1541	1.005	1.617	164.25
1542	1.01	1.617	164.25
1543	1.005	1.617	164.25
1544	1.005	1.6185	164.4
1545	1.01	1.617	164.4
1546	1.0	1.6185	164.25
1547	1.0	1.617	164.25
1548	1.0	1.614	164.25
1549	1.0	1.6155	164.25
1550	1.0	1.617	164.25
1551	1.0	1.6155	164.25
1552	1.0	1.617	164.25
1553	1.0	1.6155	164.25
1554	1.0	1.6155	164.25
1555	0.99	1.6155	164.25
1556	0.995	1.6155	164.1
1557	0.985	1.6155	164.1
1558	0.99	1.6155	164.25
1559	0.985	1.614	164.25
1560	0.99	1.614	164.1
1561	0.985	1.614	164.1
1562	0.985	1.6125	164.1
1563	0.985	1.611	163.95
1564	0.985	1.6125	164.1
1565	0.98	1.614	164.1
1566	0.98	1.6125	164.1
1567	0.98	1.611	164.1
1568	0.975	1.6125	164.1
1569	0.98	1.6125	164.1
1570	0.98	1.6125	164.1
1571	0.98	1.6125	164.1
1572	0.97	1.6095	163.95
1573	0.965	1.6095	163.95
1574	0.97	1.611	163.95
1575	0.97	1.611	163.95
1576	0.97	1.6125	163.95
1577	0.965	1.6125	163.95
1578	0.97	1.611	163.95
1579	0.965	1.611	163.95
1580	0.965	1.611	163.95
1581	0.96	1.6095	163.95
1582	0.96	1.608	163.8
1583	0.96	1.608	163.8
1584	0.965	1.6095	163.8
1585	0.965	1.6095	163.8
1586	0.965	1.6095	163.8
1587	0.96	1.608	163.8
1588	0.96	1.6095	163.8
1589	0.955	1.6095	163.8
1590	0.96	1.608	163.8
1591	0.96	1.6095	163.8
1592	0.955	1.608	163.8
1593	0.95	1.608	163.8
1594	0.95	1.6095	163.8
1595	0.95	1.6065	163.8
1596	0.945	1.608	163.8
1597	0.94	1.6065	163.65
1598	0.945	1.605	163.65
1599	0.95	1.6035	163.65
1600	0.95	1.6035	163.65
1601	0.945	1.605	163.65
1602	0.94	1.605	163.65
1603	0.94	1.605	163.65
1604	0.94	1.6065	163.65
1605	0.945	1.6035	163.65
1606	0.94	1.6035	163.65
1607	0.94	1.6035	163.5
1608	0.945	1.6005	163.5
1609	0.94	1.6035	163.5
1610	0.94	1.6035	163.5
1611	0.94	1.605	163.5
1612	0.94	1.602	163.5
1613	0.945	1.602	163.5
1614	0.93	1.6005	163.5
1615	0.935	1.602	163.5
1616	0.935	1.6005	163.5
1617	0.935	1.6005	163.5
1618	0.93	1.6005	163.5
1619	0.935	1.6005	163.5
1620	0.93	1.6005	163.5
1621	0.935	1.6005	163.5
1622	0.93	1.6005	163.5
1623	0.935	1.6005	163.5
1624	0.935	1.6005	163.5
1625	0.93	1.6005	163.5
1626	0.93	1.6005	163.5
1627	0.93	1.6005	163.5
1628	0.93	1.6005	163.5
1629	0.93	1.599	163.5
1630	0.935	1.602	163.5
1631	0.93	1.6005	163.5
1632	0.93	1.602	163.5
1633	0.925	1.599	163.5
1634	0.925	1.599	163.35
1635	0.925	1.5975	163.35
1636	0.925	1.5975	163.35
1637	0.92	1.5975	163.35
1638	0.925	1.5975	163.35
1639	0.925	1.599	163.35
1640	0.92	1.599	163.35
1641	0.92	1.5975	163.35
1642	0.92	1.5975	163.35
1643	0.92	1.596	163.35
1644	0.92	1.5975	163.35
1645	0.915	1.5975	163.35
1646	0.92	1.5975	163.35
1647	0.915	1.5975	163.35
1648	0.92	1.5975	163.35
1649	0.915	1.599	163.35
1650	0.92	1.5975	163.35
1651	0.915	1.5975	163.35
1652	0.915	1.5975	163.35
1653	0.915	1.596	163.35
1654	0.91	1.596	163.35
1655	0.915	1.5945	163.35
1656	0.91	1.5975	163.35
1657	0.905	1.5975	163.35
1658	0.905	1.5975	163.35
1659	0.91	1.5975	163.35
1660	0.91	1.596	163.35
1661	0.905	1.5975	163.35
1662	0.91	1.596	163.35
1663	0.905	1.5945	163.35
1664	0.9	1.5945	163.2
1665	0.905	1.5945	163.2
1666	0.9	1.593	163.2
1667	0.905	1.593	163.2
1668	0.9	1.5945	163.2
1669	0.9	1.593	163.2
1670	0.9	1.5945	163.2
1671	0.9	1.593	163.2
1672	0.905	1.593	163.2
1673	0.905	1.593	163.2
1674	0.91	1.593	163.2
1675	0.905	1.593	163.2
1676	0.915	1.5945	163.2
1677	0.91	1.593	163.2
1678	0.905	1.5945	163.2
1679	0.915	1.593	163.2
1680	0.905	1.5915	163.2
1681	0.905	1.59	163.2
1682	0.91	1.59	163.2
1683	0.91	1.5885	163.05
1684	0.905	1.59	163.05
1685	0.9	1.59	163.2
1686	0.91	1.5915	163.2
1687	0.905	1.5915	163.2
1688	0.91	1.593	163.2
1689	0.9	1.593	163.2
1690	0.9	1.59	163.2
1691	0.9	1.59	163.2
1692	0.9	1.593	163.2
1693	0.9	1.593	163.2
1694	0.895	1.59	163.05
1695	0.895	1.5885	163.05
1696	0.895	1.5885	163.05
1697	0.895	1.59	163.05
1698	0.89	1.5885	163.05
1699	0.89	1.5885	163.05
1700	0.89	1.5885	163.05
1701	0.89	1.587	163.05
1702	0.89	1.59	163.05
1703	0.89	1.59	163.05
1704	0.89	1.5885	163.05
1705	0.89	1.587	163.05
1706	0.89	1.5885	162.9
1707	0.89	1.5885	162.9
1708	0.885	1.5855	163.05
1709	0.89	1.587	163.05
1710	0.885	1.5885	162.9
1711	0.89	1.587	162.9
1712	0.885	1.587	162.9
1713	0.885	1.5855	162.9
1714	0.885	1.5855	162.9
1715	0.88	1.5855	162.9
1716	0.88	1.587	162.9
1717	0.88	1.5855	162.9
1718	0.88	1.5855	162.9
1719	0.88	1.5855	162.9
1720	0.88	1.5855	162.9
1721	0.875	1.5855	162.9
1722	0.88	1.584	162.9
1723	0.88	1.5855	162.9
1724	0.875	1.587	162.9
1725	0.875	1.5855	162.9
1726	0.875	1.587	162.9
1727	0.875	1.584	162.75
1728	0.88	1.584	162.75
1729	0.875	1.584	162.75
1730	0.875	1.584	162.75
1731	0.875	1.584	162.75
1732	0.875	1.581	162.75
1733	0.87	1.5825	162.6
1734	0.87	1.5825	162.75
1735	0.875	1.5825	162.75
1736	0.875	1.5825	162.6
1737	0.87	1.581	162.6
1738	0.875	1.5825	162.75
1739	0.87	1.581	162.6
1740	0.875	1.5825	162.6
1741	0.87	1.5825	162.6
1742	0.87	1.5825	162.6
1743	0.875	1.581	162.6
1744	0.865	1.5795	162.6
1745	0.87	1.5795	162.45
1746	0.865	1.581	162.6
1747	0.87	1.581	162.6
1748	0.87	1.5795	162.6
1749	0.865	1.5795	162.45
1750	0.86	1.578	162.45
1751	0.865	1.5795	162.45
1752	0.865	1.5795	162.45
1753	0.865	1.581	162.45
1754	0.86	1.581	162.45
1755	0.865	1.5795	162.45
1756	0.865	1.5795	162.6
1757	0.865	1.581	162.6
1758	0.865	1.581	162.6
1759	0.86	1.581	162.6
1760	0.86	1.5795	162.45
1761	0.86	1.5795	162.45
1762	0.86	1.578	162.45
1763	0.865	1.5765	162.45
1764	0.865	1.578	162.45
1765	0.86	1.5765	162.45
1766	0.86	1.5795	162.45
1767	0.86	1.5795	162.45
1768	0.855	1.578	162.45
1769	0.86	1.578	162.45
1770	0.86	1.581	162.45
1771	0.86	1.5795	162.45
1772	0.85	1.578	162.45
1773	0.855	1.5795	162.45
1774	0.86	1.5795	162.45
1775	0.855	1.5795	162.45
1776	0.855	1.578	162.45
1777	0.855	1.578	162.45
1778	0.86	1.578	162.45
1779	0.855	1.5765	162.45
1780	0.855	1.5765	162.45
1781	0.85	1.5765	162.3
1782	0.85	1.5765	162.3
1783	0.855	1.5765	162.45
1784	0.85	1.5765	162.3
1785	0.855	1.5765	162.3
1786	0.86	1.5765	162.3
1787	0.855	1.578	162.45
1788	0.855	1.578	162.45
1789	0.85	1.5765	162.45
1790	0.85	1.578	162.3
1791	0.85	1.575	162.3
1792	0.85	1.5765	162.3
1793	0.855	1.575	162.3
1794	0.86	1.5765	162.3
1795	0.85	1.575	162.3
1796	0.85	1.575	162.3
1797	0.855	1.5765	162.3
1798	0.855	1.575	162.3
1799	0.855	1.575	162.3
1800	0.855	1.5735	162.15
1801	0.85	1.5735	162.15
1802	0.85	1.5735	162.15
1803	0.85	1.5735	162.3
1804	0.85	1.575	162.3
1805	0.85	1.575	162.3
1806	0.85	1.5735	162.3
1807	0.85	1.5735	162.15
1808	0.845	1.575	162.15
1809	0.85	1.5735	162.3
1810	0.845	1.5735	162.3
1811	0.845	1.5735	162.15
1812	0.845	1.5735	162.15
1813	0.845	1.572	162.15
1814	0.845	1.5705	162.0
1815	0.84	1.572	162.0
1816	0.845	1.572	162.0
1817	0.845	1.5705	162.0
1818	0.845	1.572	162.0
1819	0.845	1.572	162.0
1820	0.845	1.5705	162.0
1821	0.84	1.5705	162.0
1822	0.84	1.5705	162.0
1823	0.84	1.5705	162.0
1824	0.84	1.569	162.0
1825	0.835	1.569	162.0
1826	0.84	1.569	162.0
1827	0.84	1.569	162.0
1828	0.84	1.569	162.0
1829	0.84	1.569	162.0
1830	0.84	1.569	162.0
1831	0.84	1.5675	161.85
1832	0.835	1.569	161.85
1833	0.84	1.5675	161.85
1834	0.84	1.569	161.85
1835	0.84	1.569	162.0
1836	0.84	1.5705	162.0
1837	0.84	1.569	161.85
1838	0.845	1.5675	161.85
1839	0.845	1.569	161.85
1840	0.84	1.569	162.0
1841	0.84	1.5675	161.85
1842	0.845	1.569	161.85
1843	0.84	1.5705	161.85
1844	0.845	1.5675	161.85
1845	0.84	1.5675	161.85
1846	0.84	1.5675	161.85
1847	0.84	1.5675	161.85
1848	0.845	1.566	161.85
1849	0.835	1.5675	161.85
1850	0.835	1.566	161.85
1851	0.84	1.566	161.85
1852	0.84	1.5645	161.7
1853	0.835	1.5645	161.7
1854	0.835	1.566	161.7
1855	0.84	1.5645	161.7
1856	0.83	1.566	161.7
1857	0.84	1.566	161.7
1858	0.84	1.566	161.7
1859	0.835	1.5645	161.7
1860	0.835	1.563	161.7
1861	0.835	1.5645	161.7
1862	0.835	1.5645	161.7
1863	0.835	1.563	161.7
1864	0.835	1.5645	161.7
1865	0.84	1.5645	161.7
1866	0.835	1.563	161.7
1867	0.835	1.563	161.55
1868	0.84	1.563	161.55
1869	0.84	1.563	161.7
1870	0.835	1.563	161.55
1871	0.835	1.563	161.55
1872	0.845	1.563	161.7
1873	0.84	1.5645	161.55
1874	0.84	1.563	161.55
1875	0.84	1.563	161.55
1876	0.845	1.563	161.7
1877	0.845	1.563	161.55
1878	0.845	1.563	161.55
1879	0.845	1.563	161.55
1880	0.84	1.5615	161.55
1881	0.84	1.5615	161.55
1882	0.845	1.5615	161.55
1883	0.84	1.563	161.55
1884	0.845	1.563	161.55
1885	0.845	1.56	161.55
1886	0.845	1.563	161.55
1887	0.845	1.5615	161.55
1888	0.85	1.5615	161.55
1889	0.845	1.5615	161.55
1890	0.845	1.5615	161.55
1891	0.845	1.5615	161.55
1892	0.845	1.5615	161.55
1893	0.85	1.5615	161.4
1894	0.85	1.5615	161.4
1895	0.845	1.5585	161.4
1896	0.85	1.56	161.4
1897	0.85	1.5585	161.4
1898	0.845	1.56	161.4
1899	0.845	1.56	161.4
1900	0.85	1.56	161.4
1901	0.855	1.5585	161.4
1902	0.855	1.56	161.4
1903	0.855	1.5615	161.4
1904	0.85	1.5615	161.4
1905	0.85	1.5585	161.4
1906	0.855	1.5585	161.4
1907	0.855	1.5585	161.4
1908	0.855	1.557	161.4
1909	0.85	1.5585	161.4
1910	0.855	1.557	161.4
1911	0.855	1.5585	161.4
1912	0.855	1.557	161.25
1913	0.665	0.789	99.6
1914	-1.995	0.0015	2.25
1915	-2.34	0.0	2.25
1916	-2.25	0.0	2.25
1917	-2.175	0.0	2.25
1918	-2.115	0.0	2.25
1919	-2.06	0.0	2.25
1920	-2.01	0.0	2.25
1921	-1.97	0.0	2.25
1922	-1.935	0.0	2.25
1923	-1.9	0.0	2.25
1924	-1.87	0.0	2.25
1925	-1.84	0.0	2.25
1926	-1.815	0.0	2.25
1927	-1.79	0.0	2.1
1928	-1.765	0.0	2.1
1929	-1.745	0.0	2.25
1930	-1.725	0.0	2.25
1931	-1.705	0.0	2.1
1932	-1.685	0.0	2.1
1933	-1.67	0.0	2.25
1934	-1.65	0.0	2.25
1935	-1.635	0.0	2.1
1936	-1.625	0.0	2.25
1937	-1.61	0.0	2.1
1938	-1.595	0.0	2.25
1939	-1.585	0.0	2.1
1940	-1.57	0.0	2.1
1941	-1.56	0.0	2.1
1942	-1.55	0.0	2.1
1943	-1.54	0.0	2.1
1944	-1.53	0.0	2.1
1945	-1.52	0.0	2.1
1946	-1.51	0.0	2.25
1947	-1.5	0.0	2.25
1948	-1.495	0.0	2.25
1949	-1.485	0.0	2.1
1950	-1.475	0.0	2.1
1951	-1.47	0.0	2.1
1952	-1.46	0.0	2.1
1953	-1.455	0.0	2.1
1954	-1.445	0.0	2.1
1955	-1.44	0.0	2.1
1956	-1.435	0.0	2.1
1957	-1.425	0.0	2.25
1958	-1.42	0.0	2.25
1959	-1.415	0.0	2.25
1960	-1.41	0.0	2.1
1961	-1.405	0.0	2.1
1962	-1.4	0.0	2.1
1963	-1.395	0.0	2.1
1964	-1.385	0.0	2.1
1965	-1.38	0.0	2.1
1966	-1.375	0.0	2.1
1967	-1.37	0.0	2.25
1968	-1.365	0.0	2.25
1969	-1.36	-0.0015	2.1
1970	-1.35	0.0	2.1
1971	-1.345	0.0	2.1
1972	-1.345	0.0	2.1
1973	-1.34	0.0	2.1
1974	-1.335	0.0	2.1
1975	-1.33	0.0	2.1
1976	-1.325	0.0	2.25
1977	-1.32	0.0	2.25
1978	-1.315	0.0	2.1
1979	-1.315	0.0	2.1
1980	-1.31	0.0	2.25
1981	-1.31	0.0	2.1
1982	-1.305	0.0	2.1
1983	-1.3	0.0	2.1
1984	-1.3	0.0	2.1
1985	-1.295	0.0	2.25
1986	-1.295	0.0	2.1
1987	-1.29	0.0	2.1
1988	-1.285	0.0	2.1
1989	-1.285	0.0	2.1
1990	-1.285	0.0	2.1
1991	-1.28	0.0	2.1
1992	-1.275	0.0	2.1
1993	-1.275	0.0	2.1
1994	-1.275	0.0	2.1
1995	-1.27	-0.0015	2.1
1996	-1.27	0.0	2.1
1997	-1.265	0.0	2.1
1998	-1.265	0.0	2.1
1999	-1.26	0.0	2.1
2000	-1.26	0.0	2.1
2001	-1.26	0.0	2.1
2002	-1.255	0.0	2.1
2003	-1.25	0.0	2.1
2004	-1.25	0.0	2.1
2005	-1.245	0.0	2.1
2006	-1.24	0.0	2.1
2007	-1.24	0.0	2.1
2008	-1.24	0.0	2.1
2009	-1.235	0.0	2.1
2010	-1.235	0.0	2.1
2011	-1.23	0.0	2.1
2012	-1.23	0.0	2.1
2013	-1.23	0.0	2.1
2014	-1.225	0.0	2.1
2015	-1.225	0.0	2.1
2016	-1.22	0.0	2.1
2017	-1.22	0.0	2.1
2018	-1.22	0.0	2.1
2019	-1.22	0.0	2.1
2020	-1.215	0.0	2.1
2021	-1.215	0.0	2.1
2022	-1.21	0.0	2.25
2023	-1.21	0.0	2.25
2024	-1.21	0.0	2.1
2025	-1.205	0.0	2.25
2026	-1.205	0.0	2.25
2027	-1.205	0.0	2.1
2028	-1.2	0.0	2.1
2029	-1.2	0.0	2.1
2030	-1.2	0.0	2.1
2031	-1.195	0.0	2.1
2032	-1.195	0.0	2.1
2033	-1.19	0.0	2.25
2034	-1.19	0.0	2.25
2035	-1.19	0.0	2.25
2036	-1.19	0.0	2.25
2037	-1.185	0.0	2.1
2038	-1.185	0.0	2.1
2039	-1.185	0.0	2.25
2040	-1.185	0.0	2.25
2041	-1.185	0.0	2.25
2042	-1.185	0.0	2.25
2043	-1.18	0.0	2.25
2044	-1.185	0.0	2.25
2045	-1.18	0.0	2.1
2046	-1.185	0.0	2.1
2047	-1.18	0.0	2.25
2048	-1.175	0.0	2.25
2049	-1.175	0.0	2.25
2050	-1.175	0.0	2.25
2051	-1.175	0.0	2.25
2052	-1.17	0.0	2.25
2053	-1.17	0.0	2.25
2054	-1.17	0.0	2.25
2055	-1.17	0.0	2.25
2056	-1.165	0.0	2.25
2057	-1.165	0.0	2.25
2058	-1.165	0.0	2.25
2059	-1.165	0.0	2.25
2060	-1.165	0.0	2.25
2061	-1.16	0.0	2.25
2062	-1.16	0.0	2.25
2063	-1.16	0.0	2.25
2064	-1.16	0.0	2.25
2065	-1.16	0.0	2.25
2066	-1.16	0.0	2.25
2067	-1.16	0.0	2.25
2068	-1.16	0.0	2.25
2069	-1.155	0.0	2.25
2070	-1.155	0.0	2.25
2071	-1.155	0.0	2.25
2072	-1.155	0.0	2.25
2073	-1.15	0.0	2.25
2074	-1.15	0.0	2.25
2075	-1.15	0.0	2.25
2076	-1.15	0.0	2.25
2077	-1.15	0.0	2.25
2078	-1.15	0.0	2.25
2079	-1.15	0.0	2.25
2080	-1.15	0.0	2.25
2081	-1.15	0.0	2.25
2082	-1.15	0.0	2.25
2083	-1.145	0.0	2.25
2084	-1.145	0.0	2.25
2085	-1.145	0.0	2.25
2086	-1.145	0.0	2.25
2087	-1.14	0.0	2.25
2088	-1.14	0.0	2.25
2089	-1.14	0.0	2.25
2090	-1.14	0.0	2.25
2091	-1.14	0.0	2.25
2092	-1.14	0.0	2.25
2093	-1.135	0.0	2.25
2094	-1.14	0.0	2.25
2095	-1.135	0.0	2.25
2096	-1.14	0.0	2.25
2097	-1.135	0.0	2.25
2098	-1.135	0.0	2.25
2099	-1.14	0.0	2.25
2100	-1.135	0.0	2.1
2101	-1.135	0.0	2.25
2102	-1.135	0.0	2.25
2103	-1.135	0.0	2.25
2104	-1.135	-0.0015	2.25
2105	-1.13	0.0	2.25
2106	-1.13	0.0	2.25
2107	-1.13	0.0	2.25
2108	-1.13	0.0	2.25
2109	-1.13	0.0	2.25
2110	-1.14	-0.0015	2.25
2111	-1.135	0.0	2.25
2112	-1.135	0.0	2.1
2113	-1.135	0.0	2.1
2114	-1.135	0.0	2.1
2115	-1.13	0.0	2.25
2116	-1.13	0.0	2.1
2117	-1.13	0.0	2.25
2118	-1.13	0.0	2.25
2119	-1.13	0.0	2.25
2120	-1.13	0.0	2.1
2121	-1.125	0.0	2.1
2122	-1.125	0.0	2.1
2123	-1.125	0.0	2.1
2124	-1.12	0.0	2.1
2125	-1.12	0.0	2.1
2126	-1.125	0.0	2.1
2127	-1.125	0.0	2.1
2128	-1.12	0.0	2.1
2129	-1.12	0.0	2.1
2130	-1.115	0.0	2.1
2131	-1.12	0.0	2.1
2132	-1.12	0.0	2.1
2133	-1.12	0.0	2.1
2134	-1.12	0.0	2.1
2135	-1.12	0.0	2.1
2136	-1.12	0.0	2.1
2137	-1.12	0.0	2.1
2138	-1.12	0.0	2.1
2139	-1.12	0.0	2.1
2140	-1.115	0.0	2.1
2141	-1.12	0.0	2.1
2142	-1.12	0.0	2.1
2143	-1.115	0.0	2.1
2144	-1.115	0.0	2.1
2145	-1.115	0.0	2.1
2146	-1.115	0.0	2.1
2147	-1.115	0.0	2.1
2148	-1.12	0.0	2.1
2149	-1.12	0.0	2.1
2150	-1.12	0.0	2.1
2151	-1.12	0.0	2.1
2152	-1.12	0.0	2.1
2153	-1.12	0.0	2.1
2154	-1.12	0.0	2.1
2155	-1.12	-0.0015	2.1
2156	-1.115	0.0	2.1
2157	-1.12	0.0	2.1
2158	-1.12	0.0	2.1
2159	-1.12	0.0	2.1
2160	-1.12	0.0	2.1
2161	-1.12	0.0	2.1
2162	-1.115	0.0	2.1
2163	-1.12	0.0	2.1
2164	-1.12	0.0	2.1
2165	-1.115	0.0	2.1
2166	-1.115	0.0	2.1
2167	-1.115	0.0	2.1
2168	-1.115	0.0	2.1
2169	-1.115	0.0	2.1
2170	-1.115	0.0	2.1
2171	-1.115	0.0	2.1
2172	-1.115	0.0	2.1
2173	-1.115	0.0	2.1
2174	-1.115	0.0	2.1
2175	-1.115	0.0	2.1
2176	-1.115	0.0	2.1
2177	-1.115	0.0	2.1
2178	-1.115	0.0	2.1
2179	-1.12	0.0	2.1
2180	-1.115	0.0	2.1
2181	-1.115	0.0	2.1
2182	-1.115	0.0	2.1
2183	-1.115	0.0	2.1
2184	-1.115	0.0	2.1
2185	-1.115	0.0	2.1
2186	-1.115	0.0	2.1
2187	-1.115	0.0	2.1
2188	-1.115	0.0	2.1
2189	-1.105	0.0	2.1
2190	-1.11	0.0	2.1
2191	-1.11	-0.0015	2.1
2192	-1.105	0.0	2.1
2193	-1.11	0.0	2.1
2194	-1.11	0.0	2.1
2195	-1.11	0.0	2.1
2196	-1.11	0.0	2.1
2197	-1.11	0.0	2.1
2198	-1.11	0.0	2.1
2199	-1.11	0.0	2.1
2200	-1.11	0.0	2.1
2201	-1.105	0.0	2.1
2202	-1.105	0.0	2.1
2203	-1.11	0.0	2.1
2204	-1.11	0.0	2.1
2205	-1.11	0.0	2.1
2206	-1.11	0.0	2.1
2207	-1.11	0.0	2.1
2208	-1.105	0.0	2.1
2209	-1.105	0.0	2.1
2210	-1.11	0.0	2.1
2211	-1.11	0.0	2.1
2212	-1.11	0.0	2.1
2213	-1.11	0.0	2.1
2214	-1.11	0.0	2.1
2215	-1.11	0.0	2.1
2216	-1.11	0.0	2.1
2217	-1.11	0.0	2.1
2218	-1.11	0.0	2.1
2219	-1.11	0.0	2.1
2220	-1.11	-0.0015	2.1
2221	-1.11	0.0	2.1
2222	-1.11	0.0	2.1
2223	-1.11	0.0	2.1
2224	-1.11	-0.0015	2.1
2225	-1.105	0.0	2.1
2226	-1.105	0.0	2.1
2227	-1.11	0.0	2.1
2228	-1.11	0.0	2.1
2229	-1.105	0.0	2.1
2230	-1.105	0.0	2.1
2231	-1.105	0.0	2.1
2232	-1.105	0.0	2.1
2233	-1.105	0.0	2.1
2234	-1.105	0.0	2.1
2235	-1.105	0.0	2.1
2236	-1.105	0.0	2.1
2237	-1.1	0.0	2.1
2238	-1.1	0.0	2.1
2239	-1.1	0.0	2.1
2240	-1.105	0.0	2.1
2241	-1.105	0.0	2.1
2242	-1.105	0.0	2.1
2243	-1.105	0.0	2.1
2244	-1.105	0.0	2.1
2245	-1.1	0.0	2.1
2246	-1.105	0.0	2.1
2247	-1.105	0.0	2.1
2248	-1.1	0.0	2.1
2249	-1.105	0.0	2.1
2250	-1.1	0.0	2.1
2251	-1.1	0.0	2.1
2252	-1.105	0.0	2.1
2253	-1.105	0.0	2.1
2254	-1.105	0.0	2.1
2255	-1.105	0.0	2.25
2256	-1.11	0.0	2.1
2257	-1.11	0.0	2.1
2258	-1.11	-0.0015	2.1
2259	-1.105	0.0	2.1
2260	-1.105	0.0	2.1
2261	-1.105	-0.0015	2.1
2262	-1.105	0.0	2.1
2263	-1.105	0.0	2.1
2264	-1.105	0.0	2.1
2265	-1.105	0.0	2.1
2266	-1.105	0.0	2.1
2267	-1.105	0.0	2.1
2268	-1.11	0.0	2.1
2269	-1.11	0.0	2.1
2270	-1.11	0.0	2.1
2271	-1.11	0.0	2.1
2272	-1.11	0.0	2.1
2273	-1.11	0.0	2.1
2274	-1.11	0.0	2.1
2275	-1.105	0.0	2.1
2276	-1.11	0.0	2.1
2277	-1.11	0.0	2.1
2278	-1.11	0.0	2.1
2279	-1.11	0.0	2.1
2280	-1.11	0.0	2.1
2281	-1.11	0.0	2.1
2282	-1.11	0.0	2.1
2283	-1.11	0.0	2.1
2284	-1.11	0.0	2.1
2285	-1.11	0.0	2.1
2286	-1.115	0.0	2.1
2287	-1.11	0.0	2.1
2288	-1.11	0.0	2.1
2289	-1.11	0.0	2.1
2290	-1.11	0.0	2.1
2291	-1.11	0.0	2.1
2292	-1.11	0.0	2.1
2293	-1.11	0.0	2.1
2294	-1.11	0.0	2.1
2295	-1.11	0.0	2.1
2296	-1.11	0.0	2.1
2297	-1.11	0.0	2.1
2298	-1.11	0.0	2.1
2299	-1.11	0.0	2.1
2300	-1.11	0.0	2.1
2301	-1.11	0.0	2.1
2302	-1.11	0.0	2.1
2303	-1.115	0.0	2.1
2304	-1.11	0.0	2.1
2305	-1.11	0.0	2.1
2306	-1.11	0.0	2.1
2307	-1.11	0.0	2.1
2308	-1.11	0.0	2.1
2309	-1.11	0.0	2.1
2310	-1.115	0.0	2.25
2311	-1.115	0.0	2.1
2312	-1.11	0.0	2.1
2313	-1.11	0.0	2.1
2314	-1.11	0.0	2.1
2315	-1.11	0.0	2.1
2316	-1.11	0.0	2.1
2317	-1.115	0.0	2.1
2318	-1.11	0.0	2.1
2319	-1.115	0.0	2.1
2320	-1.115	0.0	2.1
2321	-1.115	0.0	2.1
2322	-1.115	0.0	2.1
2323	-1.115	0.0	2.1
2324	-1.115	0.0	2.1
2325	-1.11	0.0	2.1
2326	-1.11	0.0	2.1
2327	-1.11	0.0	2.1
2328	-1.11	0.0	2.1
2329	-1.11	0.0	2.1
2330	-1.11	0.0	2.1
2331	-1.11	0.0	2.1
2332	-1.11	0.0	2.1
2333	-1.11	0.0	2.1
2334	-1.11	0.0	2.1
2335	-1.11	-0.0015	2.1
2336	-1.11	0.0	2.1
2337	-1.11	0.0	2.1
2338	-1.11	0.0	2.1
2339	-1.11	0.0	2.1
2340	-1.11	0.0	2.1
2341	-1.11	0.0	2.1
2342	-1.115	0.0	2.1
2343	-1.115	0.0	2.1
2344	-1.115	-0.0015	2.1
2345	-1.115	0.0	2.1
2346	-1.115	0.0	2.1
2347	-1.115	0.0	2.1
2348	-1.115	0.0	2.1
2349	-1.115	0.0	2.1
2350	-1.115	0.0	2.1
2351	-1.115	0.0	2.1
2352	-1.12	0.0	2.1
2353	-1.12	0.0	2.1
2354	-1.11	0.0	2.1
2355	-1.1	0.0	2.1
2356	-1.09	0.0	2.1
2357	-1.085	0.0	2.1
2358	-1.075	0.0	2.1
2359	-1.075	0.0	2.1
2360	-1.065	0.0	2.1
2361	-1.06	0.0	2.1
2362	-1.055	0.0	2.1
2363	-1.055	0.0	2.1
2364	-1.05	0.0	2.1
2365	-1.045	0.0	2.1
2366	-1.045	0.0	2.1
2367	-1.04	0.0	2.1
2368	-1.035	0.0	2.1
2369	-1.035	0.0	2.1
2370	-1.035	0.0	2.1
2371	-1.035	0.0	2.1
2372	-1.03	0.0	2.1
2373	-1.03	0.0	2.1
2374	-1.025	0.0	2.1
2375	-1.03	0.0	2.1
2376	-1.025	0.0	2.1
2377	-1.025	0.0	2.1
2378	-1.025	0.0	2.1
2379	-1.025	0.0	2.1
2380	-1.025	0.0	2.1
2381	-1.02	0.0	2.1
2382	-1.02	0.0	2.1
2383	-1.02	0.0	2.1
2384	-1.02	0.0	2.1
2385	-1.02	0.0	2.1
2386	-1.02	0.0	2.1
2387	-1.02	0.0	2.1
2388	-1.015	0.0	2.1
2389	-1.015	0.0	2.1
2390	-1.015	0.0	2.1
2391	-1.015	0.0	2.1
2392	-1.02	0.0	2.1
2393	-1.02	0.0	2.1
2394	-1.02	0.0	2.1
2395	-1.02	0.0	2.1
2396	-1.02	0.0	2.1
2397	-1.02	0.0	2.1
2398	-1.015	0.0	2.1
2399	-1.015	0.0	2.1
2400	-1.015	0.0	2.1
2401	-1.015	0.0	2.1
2402	-1.015	0.0	2.1
2403	-1.015	0.0	2.1
2404	-1.015	0.0	2.1
2405	-1.01	0.0	2.1
2406	-1.01	0.0	2.1
2407	-1.01	0.0	2.1
2408	-1.01	0.0	2.1
2409	-1.01	0.0	2.1
2410	-1.01	0.0	2.1
2411	-1.01	0.0	2.1
2412	-1.01	0.0	2.1
2413	-1.005	0.0	2.1
2414	-1.01	0.0	2.1
2415	-1.005	0.0	2.1
2416	-1.005	0.0	2.1
2417	-1.005	0.0	2.1
2418	-1.005	0.0	2.1
2419	-1.01	0.0	2.1
2420	-1.01	0.0	2.1
2421	-1.005	0.0	2.1
2422	-1.005	0.0	2.1
2423	-1.01	0.0	2.1
2424	-1.005	0.0	2.1
2425	-1.005	0.0	2.1
2426	-1.005	0.0	2.1
2427	-1.0	0.0	2.1
2428	-1.0	0.0	2.1
2429	-1.0	0.0	2.1
2430	-0.995	0.0	2.1
2431	-1.0	0.0	2.1
2432	-1.0	0.0	2.1
2433	-1.005	0.0	2.1
2434	-1.005	0.0	2.1
2435	-1.0	0.0	2.1
2436	-1.005	0.0	2.1
2437	-1.005	0.0	2.1
2438	-1.005	0.0	2.1
2439	-1.005	0.0	2.1
2440	-1.005	0.0	2.1
2441	-1.01	0.0	2.1
2442	-1.01	0.0	2.1
2443	-1.01	0.0	2.1
2444	-1.01	0.0	2.1
2445	-1.01	0.0	2.1
2446	-1.01	0.0	2.1
2447	-1.01	0.0	2.1
2448	-1.015	0.0	2.1
2449	-1.015	0.0	2.1
2450	-1.015	0.0	2.1
2451	-1.015	0.0	2.1
2452	-1.015	0.0	2.1
2453	-1.015	0.0	2.1
2454	-1.02	0.0	2.1
2455	-1.02	0.0	2.1
2456	-1.02	0.0	2.1
2457	-1.02	0.0	2.1
2458	-1.02	0.0	2.1
2459	-1.02	0.0	2.1
2460	-1.02	0.0	2.1
2461	-1.02	0.0	2.1
2462	-1.02	-0.0015	2.1
2463	-1.02	0.0	2.1
2464	-1.025	0.0	2.1
2465	-1.025	0.0	2.1
2466	-1.025	0.0	2.1
2467	-1.025	0.0	2.1
2468	-1.025	0.0	2.1
2469	-1.02	0.0	2.1
2470	-1.02	0.0	2.1
2471	-1.025	0.0	2.1
2472	-1.02	0.0	2.1
2473	-1.02	0.0	2.1
2474	-1.02	0.0	2.1
2475	-1.02	0.0	2.1
2476	-1.02	0.0	2.1
2477	-1.02	0.0	2.1
2478	-1.015	0.0	2.1
2479	-1.015	0.0	2.1
2480	-1.015	0.0	2.1
2481	-1.015	0.0	2.1
2482	-1.015	0.0	2.1
2483	-1.01	0.0	2.1
2484	-1.01	0.0	2.1
2485	-1.01	0.0	2.1
2486	-1.01	0.0	2.1
2487	-1.005	0.0	2.1
2488	-1.005	0.0	2.1
2489	-1.005	0.0	2.1
2490	-1.005	0.0	2.1
2491	-1.005	0.0	2.1
2492	-1.005	0.0	2.1
2493	-1.0	0.0	2.1
2494	-1.005	0.0	2.1
2495	-1.005	0.0	2.1
2496	-1.005	0.0	2.1
2497	-1.005	0.0	2.1
2498	-1.005	0.0	2.1
2499	-1.0	0.0	2.1
2500	-1.0	0.0	2.1
2501	-1.0	0.0	2.1
2502	-1.0	0.0	2.1
2503	-1.0	0.0	2.1
2504	-1.0	0.0	2.1
2505	-1.0	0.0	2.1
2506	-0.995	0.0	2.1
2507	-1.0	0.0	2.1
2508	-1.0	0.0	2.1
2509	-1.0	0.0	2.1
2510	-1.0	0.0	2.1
2511	-0.995	0.0	2.1
2512	-1.0	0.0	2.1
2513	-1.0	0.0	2.1
2514	-1.0	0.0	2.1
2515	-1.0	0.0	2.1
2516	-0.995	0.0	2.1
2517	-0.995	0.0	2.1
2518	-0.995	0.0	2.1
2519	-0.995	0.0	2.1
2520	-0.995	0.0	2.1
2521	-0.995	0.0	2.1
2522	-0.995	0.0	2.1
2523	-0.995	0.0	2.1
2524	-0.995	0.0	2.1
2525	-0.995	0.0	2.1
2526	-0.995	0.0	2.1
2527	-1.0	0.0	2.1
2528	-1.0	0.0	2.1
2529	-1.0	0.0	2.1
2530	-0.995	0.0	2.1
2531	-1.0	0.0	2.1
2532	-1.0	0.0	2.1
2533	-0.995	0.0	2.1
2534	-1.0	0.0	2.1
2535	-1.0	0.0	2.1
2536	-1.005	0.0	2.1
2537	-1.005	0.0	2.1
2538	-1.005	0.0	2.1
2539	-1.005	0.0	2.1
2540	-1.01	0.0	2.1
2541	-1.01	0.0	2.1
2542	-1.01	0.0	2.1
2543	-1.015	-0.0015	2.1
2544	-1.015	0.0	2.1
2545	-1.015	0.0	2.1
2546	-1.015	0.0	2.1
2547	-1.015	0.0	2.1
2548	-1.015	0.0	2.1
2549	-1.015	0.0	2.1
2550	-1.02	0.0	2.1
2551	-1.02	0.0	2.1
2552	-1.02	0.0	2.1
2553	-1.02	0.0	2.1
2554	-1.02	0.0	2.1
2555	-1.02	0.0	2.1
2556	-1.02	0.0	2.1
2557	-1.02	0.0	2.1
2558	-1.02	0.0	2.1
2559	-1.02	0.0	2.1
2560	-1.02	0.0	2.1
2561	-1.02	0.0	2.1
2562	-1.02	-0.0015	2.1
2563	-1.02	0.0	2.1
2564	-1.02	0.0	2.1
2565	-1.02	0.0	2.1
2566	-1.02	0.0	2.1
2567	-1.02	0.0	2.1
2568	-1.02	0.0	2.1
2569	-1.02	0.0	2.1
2570	-1.02	0.0	2.1
2571	-1.015	0.0	2.1
2572	-1.015	0.0	2.1
2573	-1.02	0.0	2.1
2574	-1.02	0.0	2.1
2575	-1.015	0.0	2.1
2576	-1.015	0.0	2.1
2577	-1.02	0.0	2.1
2578	-1.02	0.0	2.1
2579	-1.015	0.0	2.1
2580	-1.015	-0.0015	2.1
2581	-1.02	0.0	2.1
2582	-1.02	0.0	2.1
2583	-1.02	0.0	2.1
2584	-1.02	0.0	2.1
2585	-1.02	0.0	2.1
2586	-1.02	0.0	2.1
2587	-1.02	0.0	2.1
2588	-1.02	0.0	2.1
2589	-1.02	0.0	2.1
2590	-1.02	0.0	2.1
2591	-1.02	0.0	2.1
2592	-1.02	0.0	2.1
2593	-1.02	0.0	2.1
2594	-1.02	0.0	2.1
2595	-1.02	0.0	2.1
2596	-1.02	-0.0015	2.1
2597	-1.02	0.0	2.1
2598	-1.02	0.0	2.1
2599	-1.02	0.0	2.1
2600	-1.02	0.0	2.1
2601	-1.02	0.0	2.1
2602	-1.02	0.0	2.1
2603	-1.02	0.0	2.1
2604	-1.02	0.0	2.1
2605	-1.02	0.0	2.1
2606	-1.02	0.0	2.1
2607	-1.02	0.0	2.1
2608	-1.02	0.0	2.1
2609	-1.02	0.0	2.1
2610	-1.025	0.0	2.1
2611	-1.025	0.0	2.1
2612	-1.025	0.0	2.1
2613	-1.025	0.0	2.1
2614	-1.03	0.0	2.1
2615	-1.03	0.0	2.1
2616	-1.03	0.0	2.1
2617	-1.03	0.0	2.1
2618	-1.035	0.0	2.1
2619	-1.035	0.0	2.1
2620	-1.035	0.0	2.1
2621	-1.035	0.0	2.1
2622	-1.04	0.0	2.1
2623	-1.04	0.0	2.1
2624	-1.04	0.0	2.1
2625	-1.04	0.0	2.1
2626	-1.04	0.0	2.1
2627	-1.04	0.0	2.1
2628	-1.04	0.0	2.1
2629	-1.04	0.0	2.1
2630	-1.04	0.0	2.1
2631	-1.04	0.0	2.1
2632	-1.04	0.0	2.1
2633	-1.04	0.0	2.1
2634	-1.04	0.0	2.1
2635	-1.04	0.0	2.1
2636	-1.04	0.0	2.1
2637	-1.045	0.0	2.1
2638	-1.045	0.0	2.1
2639	-1.045	0.0	2.1
2640	-1.045	0.0	2.1
2641	-1.045	0.0	2.1
2642	-1.04	0.0	2.1
2643	-1.045	0.0	2.1
2644	-1.04	0.0	2.1
2645	-1.04	0.0	2.1
2646	-1.04	0.0	2.1
2647	-1.04	-0.0015	2.1
2648	-1.04	0.0	2.1
2649	-1.04	0.0	2.1
2650	-1.045	0.0	2.1
2651	-1.045	0.0	2.1
2652	-1.045	0.0	2.1
2653	-1.045	0.0	2.1
2654	-1.045	0.0	2.1
2655	-1.04	0.0	2.1
2656	-1.045	0.0	2.1
2657	-1.045	0.0	2.1
2658	-1.045	0.0	2.1
2659	-1.045	0.0	2.1
2660	-1.045	0.0	2.1
2661	-1.045	0.0	2.1
2662	-1.05	0.0	2.1
2663	-1.045	0.0	2.1
2664	-1.045	0.0	2.1
2665	-1.045	0.0	2.1
2666	-1.045	0.0	2.1
2667	-1.045	0.0	2.1
2668	-1.05	0.0	2.1
2669	-1.05	0.0	2.1
2670	-1.05	0.0	2.1
2671	-1.05	0.0	2.1
2672	-1.05	0.0	2.1
2673	-1.05	0.0	2.1
2674	-1.05	0.0	2.1
2675	-1.045	0.0	2.1
2676	-1.045	0.0	2.1
2677	-1.045	0.0	2.1
2678	-1.045	0.0	2.1
2679	-1.045	0.0	2.1
2680	-1.05	0.0	2.1
2681	-1.045	0.0	2.1
2682	-1.045	0.0	2.1
2683	-1.045	0.0	2.1
2684	-1.045	0.0	2.1
2685	-1.045	0.0	2.1
2686	-1.045	0.0	2.1
2687	-1.045	0.0	2.1
2688	-1.045	0.0	2.1
2689	-1.05	0.0	2.1
2690	-1.05	0.0	2.1
2691	-1.055	0.0	2.1
2692	-1.055	0.0	2.1
2693	-1.055	0.0	2.1
2694	-1.055	0.0	2.1
2695	-1.06	0.0	2.1
2696	-1.06	0.0	2.1
2697	-1.06	0.0	2.1
2698	-1.055	0.0	2.1
2699	-1.06	0.0	2.1
2700	-1.06	0.0	2.1
2701	-1.06	0.0	2.1
2702	-1.06	0.0	2.1
2703	-1.06	0.0	2.1
2704	-1.06	0.0	2.1
2705	-1.06	0.0	2.1
2706	-1.06	0.0	2.1
2707	-1.06	0.0	2.1
2708	-1.06	0.0	2.1
2709	-1.06	0.0	2.1
2710	-1.06	0.0	2.1
2711	-1.06	0.0	2.1
2712	-1.06	0.0	2.1
2713	-1.06	0.0	2.1
2714	-1.065	0.0	2.1
2715	-1.065	0.0	2.1
2716	-1.07	0.0	2.1
2717	-1.065	0.0	2.1
2718	-1.07	0.0	2.1
2719	-1.065	0.0	2.1
2720	-1.065	0.0	2.1
2721	-1.065	0.0	2.1
2722	-1.065	0.0	2.1
2723	-1.065	0.0	2.1
2724	-1.06	0.0	2.1
2725	-1.065	0.0	2.1
2726	-1.06	0.0	2.1
2727	-1.06	0.0	2.1
2728	-1.06	0.0	2.1
2729	-1.06	0.0	2.1
2730	-1.06	0.0	2.1
2731	-1.06	0.0	2.1
2732	-1.06	0.0	2.1
2733	-1.06	0.0	2.1
2734	-1.06	0.0	2.1
2735	-1.055	0.0	2.1
2736	-1.055	-0.0015	2.1
2737	-1.055	0.0	2.1
2738	-1.055	0.0	2.1
2739	-1.055	0.0	2.1
2740	-1.055	0.0	2.1
2741	-1.055	0.0	2.1
2742	-1.055	0.0	2.1
2743	-1.06	0.0	2.1
2744	-1.06	0.0	2.1
2745	-1.06	0.0	2.1
2746	-1.06	0.0	2.1
2747	-1.06	0.0	2.1
2748	-1.06	0.0	2.1
2749	-1.06	0.0	2.1
2750	-1.06	0.0	2.1
2751	-1.055	0.0	2.1
2752	-1.06	0.0	2.1
2753	-1.06	0.0	2.1
2754	-1.06	0.0	2.1
2755	-1.06	0.0	2.1
2756	-1.06	0.0	2.1
2757	-1.06	0.0	2.1
2758	-1.06	0.0	2.1
2759	-1.06	0.0	2.1
2760	-1.065	0.0	2.1
2761	-1.065	0.0	2.1
2762	-1.06	0.0	2.1
2763	-1.065	0.0	2.1
2764	-1.065	-0.0015	2.1
2765	-1.065	0.0	2.1
2766	-1.06	0.0	2.1
2767	-1.06	0.0	2.1
2768	-1.06	0.0	2.1
2769	-1.06	0.0	2.1
2770	-1.06	0.0	2.1
2771	-1.055	0.0	2.1
2772	-1.06	0.0	2.1
2773	-1.06	0.0	2.1
2774	-1.06	0.0	2.1
2775	-1.055	0.0	2.1
2776	-1.06	0.0	2.1
2777	-1.06	0.0	2.1
2778	-1.065	0.0	2.1
2779	-1.06	0.0	2.1
2780	-1.06	0.0	2.1
2781	-1.06	0.0	2.1
2782	-1.06	-0.0015	2.1
2783	-1.06	0.0	2.1
2784	-1.065	0.0	2.1
2785	-1.06	0.0	2.1
2786	-1.06	0.0	2.1
2787	-1.06	0.0	2.1
2788	-1.06	0.0	2.1
2789	-1.06	0.0	2.1
2790	-1.055	0.0	2.1
2791	-1.055	0.0	2.1
2792	-1.055	0.0	2.1
2793	-1.06	0.0	2.1
2794	-1.06	0.0	2.1
2795	-1.06	0.0	2.1
2796	-1.06	0.0	2.1
2797	-1.055	0.0	2.1
2798	-1.055	0.0	2.1
2799	-1.06	0.0	2.1
2800	-1.06	0.0	2.1
2801	-1.06	0.0	2.1
2802	-1.06	0.0	2.1
2803	-1.055	0.0	2.1
2804	-1.055	0.0	2.1
2805	-1.06	0.0	2.1
2806	-1.055	0.0	2.1
2807	-1.055	0.0	2.1
2808	-1.055	0.0	2.1
2809	-1.055	0.0	2.1
2810	-1.055	0.0	2.1
2811	-1.055	0.0	2.1
2812	-1.06	0.0	2.1
2813	-1.055	0.0	2.1
2814	-1.055	0.0	2.1
2815	-1.055	0.0	2.1
2816	-1.06	0.0	2.1
2817	-1.055	0.0	2.1
2818	-1.055	0.0	2.1
2819	-1.055	0.0	2.1
2820	-1.06	0.0	2.1
2821	-1.06	0.0	2.1
2822	-1.06	0.0	2.1
2823	-1.06	0.0	2.1
2824	-1.065	0.0	2.1
2825	-1.065	0.0	2.1
2826	-1.07	0.0	2.1
2827	-1.07	0.0	2.1
2828	-1.07	0.0	2.1
2829	-1.07	0.0	2.1
2830	-1.07	0.0	2.1
2831	-1.07	0.0	2.1
2832	-1.07	0.0	2.1
2833	-1.07	0.0	2.1
2834	-1.075	0.0	2.1
2835	-1.075	0.0	2.1
2836	-1.075	0.0	2.1
2837	-1.075	0.0	2.1
2838	-1.075	0.0	2.1
2839	-1.07	0.0	2.1
2840	-1.07	0.0	2.1
2841	-1.075	0.0	2.1
2842	-1.075	0.0	2.1
2843	-1.075	0.0	2.1
2844	-1.07	0.0	2.1
2845	-1.07	0.0	2.1
2846	-1.07	0.0	2.1
2847	-1.075	0.0	2.1
2848	-1.07	0.0	2.1
2849	-1.07	0.0	2.1
2850	-1.07	0.0	2.1
2851	-1.07	0.0	2.1
2852	-1.07	0.0	2.1
2853	-1.07	0.0	2.1
2854	-1.07	0.0	2.1
2855	-1.07	0.0	2.1
2856	-1.07	0.0	2.1
2857	-1.07	0.0	2.1
2858	-1.07	0.0	2.1
2859	-1.07	0.0	2.1
2860	-1.07	0.0	2.1
2861	-1.07	0.0	2.1
2862	-1.07	0.0	2.1
2863	-1.07	0.0	2.1
2864	-1.075	0.0	2.1
2865	-1.075	0.0	2.1
2866	-1.075	0.0	2.1
2867	-1.07	0.0	2.1
2868	-1.075	0.0	2.1
2869	-1.075	0.0	2.1
2870	-1.08	0.0	2.1
2871	-1.08	0.0	2.1
2872	-1.08	0.0	2.1
2873	-1.085	0.0	2.1
2874	-1.085	0.0	2.1
2875	-1.085	0.0	2.1
2876	-1.085	0.0	2.1
2877	-1.09	0.0	2.1
2878	-1.09	0.0	2.1
2879	-1.09	0.0	2.1
2880	-1.09	0.0	2.1
2881	-1.095	0.0	2.1
2882	-1.095	0.0	2.1
2883	-1.095	0.0	2.1
2884	-1.095	0.0	2.1
2885	-1.095	0.0	2.1
2886	-1.09	0.0	2.1
2887	-1.09	0.0	2.1
2888	-1.09	0.0	2.1
2889	-1.085	0.0	2.1
2890	-1.085	0.0	2.1
2891	-1.085	0.0	2.1
2892	-1.08	0.0	2.1
2893	-1.08	0.0	2.1
2894	-1.08	0.0	2.1
2895	-1.08	0.0	2.1
2896	-1.08	0.0	2.1
2897	-1.075	0.0	2.1
2898	-1.075	0.0	2.1
2899	-1.075	0.0	2.1
2900	-1.075	0.0	2.1
2901	-1.075	0.0	2.1
2902	-1.075	0.0	2.1
2903	-1.075	0.0	2.1
2904	-1.075	0.0	2.1
2905	-1.075	0.0	2.1
2906	-1.07	0.0	2.1
2907	-1.075	0.0	2.1
2908	-1.075	0.0	2.1
2909	-1.075	0.0	2.1
2910	-1.07	0.0	2.1
2911	-1.075	0.0	2.1
2912	-1.075	0.0	2.1
2913	-1.075	0.0	2.1
2914	-1.075	0.0	2.1
2915	-1.075	-0.0015	2.1
2916	-1.075	-0.0015	2.1
2917	-1.075	0.0	2.1
2918	-1.08	0.0	2.1
2919	-1.08	0.0	2.1
2920	-1.08	0.0	2.1
2921	-1.08	0.0	2.1
2922	-1.08	0.0	2.1
2923	-1.08	0.0	2.1
2924	-1.08	0.0	2.1
2925	-1.08	0.0	2.1
2926	-1.08	0.0	2.1
2927	-1.075	0.0	2.1
2928	-1.08	0.0	2.1
2929	-1.08	0.0	2.1
2930	-1.075	-0.0015	2.1
2931	-1.08	0.0	2.1
2932	-1.08	0.0	2.1
2933	-1.08	0.0	2.1
2934	-1.08	0.0	2.1
2935	-1.08	0.0	2.1
2936	-1.08	0.0	2.1
2937	-1.08	0.0	2.1
2938	-1.08	-0.0015	2.1
2939	-1.085	0.0	2.1
2940	-1.085	0.0	2.1
2941	-1.085	0.0	2.1
2942	-1.085	0.0	2.1
2943	-1.085	0.0	2.1
2944	-1.085	0.0	2.1
2945	-1.085	0.0	2.1
2946	-1.085	0.0	2.1
2947	-1.085	0.0	2.1
2948	-1.085	0.0	2.1
2949	-1.085	0.0	2.1
2950	-1.085	0.0	2.1
2951	-1.085	0.0	2.1
2952	-1.085	0.0	2.1
2953	-1.085	0.0	2.1
2954	-1.085	0.0	2.1
2955	-1.085	0.0	2.1
2956	-1.085	0.0	2.1
2957	-1.08	0.0	2.1
2958	-1.08	-0.0015	2.1
2959	-1.08	0.0	2.1
2960	-1.08	0.0	2.1
2961	-1.08	0.0	2.1
2962	-1.08	0.0	2.1
2963	-1.08	0.0	2.1
2964	-1.08	0.0	2.1
2965	-1.08	0.0	2.1
2966	-1.08	0.0	2.1
2967	-1.075	0.0	2.1
2968	-1.08	0.0	2.1
2969	-1.08	0.0	2.1
2970	-1.08	0.0	2.1
2971	-1.08	0.0	2.1
2972	-1.08	0.0	2.1
2973	-1.085	0.0	2.1
2974	-1.085	0.0	2.1
2975	-1.085	0.0	2.1
2976	-1.085	0.0	2.1
2977	-1.085	0.0	2.1
2978	-1.08	0.0	2.1
2979	-1.08	0.0	2.1
2980	-1.08	0.0	2.1
2981	-1.075	0.0	2.1
2982	-1.075	0.0	2.1
2983	-1.075	0.0	2.1
2984	-1.075	0.0	2.1
2985	-1.075	0.0	2.1
2986	-1.08	0.0	2.1
2987	-1.08	0.0	2.1
2988	-1.08	0.0	2.1
2989	-1.08	0.0	2.1
2990	-1.08	0.0	2.1
2991	-1.08	0.0	2.1
2992	-1.08	0.0	2.1
2993	-1.08	0.0	2.1
2994	-1.075	0.0	2.1
2995	-1.08	0.0	2.1
2996	-1.08	0.0	2.1
2997	-1.08	0.0	2.1
2998	-1.08	0.0	2.1
2999	-1.085	0.0	2.1
3000	-1.085	0.0	2.1
3001	-1.085	0.0	2.1
3002	-1.085	0.0	2.1
3003	-1.09	0.0	2.1
3004	-1.09	0.0	2.1
3005	-1.09	0.0	2.1
3006	-1.095	0.0	2.1
3007	-1.095	0.0	2.1
3008	-1.1	0.0	2.1
3009	-1.1	0.0	2.1
3010	-1.105	0.0	2.1
3011	-1.105	0.0	2.1
3012	-1.105	0.0	2.1
3013	-1.11	0.0	2.1
3014	-1.11	0.0	2.1
3015	-1.105	0.0	2.1
3016	-1.105	0.0	2.1
3017	-1.105	0.0	2.1
3018	-1.105	0.0	2.1
3019	-1.105	0.0	2.1
3020	-1.105	0.0	2.1
3021	-1.105	0.0	2.1
3022	-1.105	0.0	2.1
3023	-1.105	0.0	2.1
3024	-1.105	0.0	2.1
3025	-1.105	0.0	2.1
3026	-1.105	0.0	2.1
3027	-1.105	0.0	2.1
3028	-1.1	0.0	2.1
3029	-1.1	0.0	2.1
3030	-1.105	0.0	2.1
3031	-1.105	0.0	2.1
3032	-1.105	0.0	2.1
3033	-1.105	0.0	2.1
3034	-1.11	0.0	2.1
3035	-1.11	0.0	2.1
3036	-1.11	0.0	2.1
3037	-1.115	0.0	2.1
3038	-1.115	0.0	2.1
3039	-1.115	-0.0015	2.1
3040	-1.115	0.0	2.1
3041	-1.115	0.0	2.1
3042	-1.115	0.0	2.1
3043	-1.115	-0.0015	2.1
3044	-1.115	0.0	2.1
3045	-1.12	0.0	2.1
3046	-1.12	0.0	2.1
3047	-1.12	0.0	2.1
3048	-1.12	0.0	2.1
3049	-1.12	0.0	2.1
3050	-1.12	-0.0015	2.1
3051	-1.125	0.0	2.1
3052	-1.125	0.0	2.1
3053	-1.125	0.0	2.1
3054	-1.13	0.0	2.1
3055	-1.125	0.0	2.1
3056	-1.125	0.0	2.1
3057	-1.125	0.0	2.1
3058	-1.125	0.0	2.1
3059	-1.13	0.0	2.1
3060	-1.13	0.0	2.1
3061	-1.125	0.0	2.1
3062	-1.125	0.0	2.1
3063	-1.125	0.0	2.1
3064	-1.125	0.0	2.1
3065	-1.125	0.0	2.1
3066	-1.12	0.0	2.1
3067	-1.125	-0.0015	2.1
3068	-1.125	0.0	2.1
3069	-1.125	0.0	2.1
3070	-1.125	0.0	2.1
3071	-1.125	0.0	2.1
3072	-1.125	0.0	2.1
3073	-1.125	0.0	2.1
3074	-0.795	0.0	2.1
3075	-0.795	0.3435	49.95
3076	1.54	1.395	149.25
3077	2.195	1.677	167.1
3078	2.05	1.677	167.1
3079	1.95	1.6785	167.1
3080	1.87	1.6785	167.1
3081	1.8	1.677	167.1
3082	1.735	1.674	166.95
3083	1.685	1.677	166.95
3084	1.63	1.6755	166.95
3085	1.585	1.677	166.95
3086	1.545	1.6755	166.95
3087	1.51	1.6755	166.95
3088	1.47	1.6755	166.95
3089	1.435	1.6755	166.95
3090	1.41	1.677	166.95
3091	1.38	1.677	166.95
3092	1.355	1.6755	166.95
3093	1.33	1.674	166.95
3094	1.305	1.6725	166.95
3095	1.28	1.674	166.95
3096	1.26	1.674	166.8
3097	1.235	1.6725	166.8
3098	1.215	1.674	166.8
3099	1.195	1.6725	166.8
3100	1.175	1.671	166.8
3101	1.16	1.6725	166.8
3102	1.145	1.6725	166.8
3103	1.135	1.6725	166.8
3104	1.115	1.6695	166.8
3105	1.105	1.6695	166.65
3106	1.09	1.6695	166.65
3107	1.08	1.6695	166.65
3108	1.075	1.671	166.8
3109	1.065	1.671	166.65
3110	1.045	1.668	166.65
3111	1.04	1.668	166.65
3112	1.03	1.6695	166.65
3113	1.02	1.6665	166.65
3114	1.02	1.6695	166.65
3115	1.01	1.668	166.65
3116	1.005	1.668	166.65
3117	1.0	1.6665	166.5
3118	0.985	1.6665	166.5
3119	0.975	1.668	166.5
3120	0.975	1.6665	166.5
3121	0.97	1.6635	166.5
3122	0.955	1.6635	166.35
3123	0.95	1.6635	166.35
3124	0.945	1.662	166.35
3125	0.94	1.6635	166.35
3126	0.93	1.662	166.35
3127	0.925	1.6635	166.35
3128	0.92	1.662	166.35
3129	0.915	1.662	166.35
3130	0.91	1.662	166.35
3131	0.905	1.6605	166.35
3132	0.895	1.662	166.35
3133	0.885	1.662	166.35
3134	0.885	1.6605	166.35
3135	0.88	1.662	166.35
3136	0.875	1.659	166.35
3137	0.865	1.6605	166.2
3138	0.86	1.659	166.2
3139	0.855	1.662	166.2
3140	0.845	1.6575	166.2
3141	0.84	1.659	166.2
3142	0.84	1.659	166.2
3143	0.835	1.6575	166.05
3144	0.83	1.6575	166.05
3145	0.83	1.6575	166.2
3146	0.83	1.659	166.2
3147	0.825	1.6575	166.05
3148	0.82	1.6575	166.05
3149	0.82	1.6575	166.05
3150	0.82	1.659	166.2
3151	0.815	1.6575	166.2
3152	0.815	1.6545	166.05
3153	0.815	1.656	166.05
3154	0.805	1.656	166.05
3155	0.805	1.6545	166.05
3156	0.805	1.6545	166.05
3157	0.805	1.653	165.9
3158	0.8	1.656	165.9
3159	0.8	1.653	166.05
3160	0.805	1.6545	166.05
3161	0.795	1.6545	166.05
3162	0.79	1.653	165.9
3163	0.79	1.653	165.9
3164	0.795	1.653	165.9
3165	0.79	1.653	165.9
3166	0.79	1.6515	165.9
3167	0.785	1.653	165.9
3168	0.79	1.6515	165.9
3169	0.785	1.65	165.9
3170	0.785	1.65	165.75
3171	0.78	1.65	165.75
3172	0.775	1.65	165.75
3173	0.775	1.65	165.75
3174	0.77	1.65	165.75
3175	0.765	1.6515	165.75
3176	0.765	1.6515	165.75
3177	0.765	1.6515	165.75
3178	0.76	1.65	165.75
3179	0.755	1.65	165.75
3180	0.76	1.6485	165.75
3181	0.755	1.6455	165.6
3182	0.75	1.6485	165.6
3183	0.75	1.647	165.6
3184	0.745	1.6455	165.6
3185	0.75	1.647	165.6
3186	0.74	1.6455	165.6
3187	0.745	1.647	165.6
3188	0.735	1.644	165.6
3189	0.735	1.644	165.6
3190	0.735	1.644	165.45
3191	0.735	1.644	165.6
3192	0.735	1.6425	165.45
3193	0.73	1.6425	165.45
3194	0.73	1.641	165.45
3195	0.73	1.6425	165.45
3196	0.725	1.641	165.45
3197	0.725	1.641	165.45
3198	0.72	1.6425	165.45
3199	0.725	1.644	165.45
3200	0.72	1.641	165.45
3201	0.715	1.641	165.45
3202	0.72	1.641	165.45
3203	0.715	1.6395	165.3
3204	0.715	1.6425	165.3
3205	0.71	1.6395	165.3
3206	0.705	1.6395	165.3
3207	0.705	1.638	165.3
3208	0.705	1.6395	165.3
3209	0.705	1.6395	165.3
3210	0.705	1.6395	165.3
3211	0.705	1.641	165.3
3212	0.695	1.6395	165.3
3213	0.7	1.6395	165.3
3214	0.695	1.638	165.3
3215	0.695	1.6365	165.3
3216	0.695	1.638	165.15
3217	0.69	1.6365	165.15
3218	0.69	1.6365	165.15
3219	0.69	1.635	165.15
3220	0.685	1.638	165.15
3221	0.68	1.6365	165.15
3222	0.68	1.6365	165.15
3223	0.68	1.6365	165.15
3224	0.68	1.6365	165.15
3225	0.68	1.638	165.15
3226	0.68	1.6365	165.15
3227	0.68	1.6365	165.15
3228	0.68	1.635	165.15
3229	0.68	1.6335	165.15
3230	0.68	1.635	165.15
3231	0.68	1.6365	165.15
3232	0.68	1.6365	165.15
3233	0.68	1.6365	165.15
3234	0.68	1.635	165.15
3235	0.68	1.6365	165.15
3236	0.68	1.635	165.15
3237	0.675	1.6335	165.0
3238	0.675	1.635	165.0
3239	0.67	1.635	165.0
3240	0.67	1.632	165.0
3241	0.67	1.6335	165.0
3242	0.67	1.632	165.0
3243	0.67	1.6335	164.85
3244	0.665	1.632	164.85
3245	0.67	1.6305	164.85
3246	0.66	1.6305	164.85
3247	0.665	1.632	164.85
3248	0.665	1.6305	164.85
3249	0.665	1.632	164.85
3250	0.66	1.6305	164.85
3251	0.66	1.6305	164.85
3252	0.66	1.6305	164.85
3253	0.655	1.6305	164.85
3254	0.66	1.632	164.85
3255	0.655	1.629	164.7
3256	0.655	1.6305	164.7
3257	0.65	1.6275	164.7
3258	0.645	1.629	164.7
3259	0.645	1.6275	164.7
3260	0.645	1.6275	164.7
3261	0.645	1.6275	164.7
3262	0.64	1.6275	164.7
3263	0.645	1.6275	164.7
3264	0.645	1.6275	164.7
3265	0.645	1.6275	164.7
3266	0.645	1.626	164.7
3267	0.64	1.626	164.7
3268	0.645	1.626	164.55
3269	0.64	1.626	164.55
3270	0.645	1.623	164.55
3271	0.64	1.6245	164.55
3272	0.64	1.626	164.55
3273	0.635	1.6245	164.55
3274	0.64	1.6245	164.55
3275	0.64	1.626	164.55
3276	0.635	1.623	164.55
3277	0.635	1.623	164.4
3278	0.635	1.6245	164.4
3279	0.625	1.6215	164.4
3280	0.63	1.623	164.4
3281	0.63	1.6215	164.4
3282	0.625	1.6215	164.4
3283	0.63	1.6215	164.4
3284	0.63	1.623	164.4
3285	0.63	1.6215	164.4
3286	0.625	1.6215	164.4
3287	0.63	1.623	164.4
3288	0.625	1.6215	164.4
3289	0.62	1.623	164.4
3290	0.62	1.6215	164.4
3291	0.62	1.6185	164.4
3292	0.615	1.62	164.25
3293	0.62	1.62	164.25
3294	0.62	1.62	164.25
3295	0.615	1.6185	164.25
3296	0.61	1.6185	164.25
3297	0.61	1.6185	164.25
3298	0.61	1.6185	164.25
3299	0.61	1.6185	164.25
3300	0.6	1.6185	164.25
3301	0.605	1.6185	164.25
3302	0.605	1.617	164.1
3303	0.605	1.617	164.25
3304	0.605	1.617	164.1
3305	0.6	1.617	164.1
3306	0.595	1.617	164.1
3307	0.595	1.617	164.1
3308	0.6	1.6155	164.1
3309	0.595	1.617	164.1
3310	0.59	1.617	164.1
3311	0.59	1.614	164.1
3312	0.59	1.614	163.95
3313	0.59	1.6155	164.1
3314	0.595	1.614	164.1
3315	0.59	1.617	164.1
3316	0.59	1.6155	164.1
3317	0.585	1.614	163.95
3318	0.58	1.611	163.95
3319	0.575	1.6125	163.95
3320	0.575	1.6125	163.95
3321	0.58	1.614	163.95
3322	0.58	1.6125	163.95
3323	0.575	1.611	163.8
3324	0.575	1.611	163.8
3325	0.575	1.6125	163.8
3326	0.575	1.614	163.95
3327	0.575	1.614	163.95
3328	0.575	1.6125	163.95
3329	0.575	1.6125	163.95
3330	0.57	1.6125	163.95
3331	0.57	1.6125	163.95
3332	0.57	1.6125	163.8
3333	0.565	1.611	163.8
3334	0.565	1.611	163.8
3335	0.56	1.611	163.8
3336	0.56	1.6095	163.8
3337	0.56	1.611	163.8
3338	0.56	1.611	163.8
3339	0.56	1.611	163.8
3340	0.56	1.6125	163.8
3341	0.555	1.611	163.8
3342	0.555	1.611	163.65
3343	0.555	1.6095	163.65
3344	0.55	1.608	163.65
3345	0.545	1.6095	163.65
3346	0.55	1.6065	163.65
3347	0.545	1.608	163.65
3348	0.545	1.608	163.65
3349	0.54	1.6095	163.65
3350	0.54	1.6065	163.65
3351	0.54	1.608	163.65
3352	0.54	1.6065	163.65
3353	0.545	1.608	163.65
3354	0.54	1.605	163.65
3355	0.54	1.608	163.65
3356	0.535	1.6065	163.65
3357	0.54	1.6065	163.65
3358	0.54	1.6065	163.65
3359	0.54	1.6065	163.65
3360	0.54	1.608	163.65
3361	0.535	1.6065	163.65
3362	0.54	1.605	163.65
3363	0.535	1.6065	163.5
3364	0.535	1.6065	163.5
3365	0.535	1.605	163.5
3366	0.535	1.605	163.5
3367	0.535	1.6065	163.5
3368	0.535	1.6065	163.5
3369	0.535	1.605	163.5
3370	0.535	1.605	163.5
3371	0.535	1.605	163.5
3372	0.535	1.6035	163.5
3373	0.535	1.6065	163.5
3374	0.535	1.605	163.5
3375	0.535	1.6035	163.5
3376	0.54	1.6035	163.5
3377	0.535	1.6035	163.5
3378	0.54	1.6035	163.5
3379	0.54	1.602	163.5
3380	0.54	1.6035	163.5
3381	0.54	1.605	163.5
3382	0.55	1.6035	163.5
3383	0.55	1.602	163.5
3384	0.545	1.602	163.35
3385	0.545	1.602	163.35
3386	0.55	1.6035	163.5
3387	0.55	1.6005	163.35
3388	0.545	1.6005	163.35
3389	0.545	1.6005	163.35
3390	0.545	1.599	163.35
3391	0.545	1.602	163.35
3392	0.545	1.6005	163.35
3393	0.55	1.6005	163.35
3394	0.545	1.6005	163.35
3395	0.54	1.6005	163.35
3396	0.535	1.599	163.35
3397	0.54	1.599	163.35
3398	0.54	1.6005	163.35
3399	0.54	1.599	163.35
3400	0.535	1.6005	163.35
3401	0.535	1.599	163.35
3402	0.535	1.599	163.35
3403	0.53	1.5975	163.35
3404	0.535	1.596	163.2
3405	0.535	1.5975	163.2
3406	0.535	1.5975	163.2
3407	0.535	1.5975	163.2
3408	0.535	1.5975	163.2
3409	0.535	1.596	163.2
3410	0.535	1.596	163.2
3411	0.535	1.599	163.2
3412	0.535	1.5975	163.2
3413	0.53	1.5975	163.2
3414	0.53	1.596	163.2
3415	0.535	1.596	163.2
3416	0.53	1.596	163.2
3417	0.53	1.596	163.2
3418	0.525	1.596	163.2
3419	0.525	1.596	163.2
3420	0.525	1.596	163.2
3421	0.53	1.5975	163.2
3422	0.525	1.5975	163.2
3423	0.525	1.5975	163.2
3424	0.525	1.5945	163.2
3425	0.525	1.5945	163.2
3426	0.525	1.5945	163.2
3427	0.515	1.593	163.2
3428	0.52	1.5945	163.2
3429	0.52	1.596	163.2
3430	0.515	1.5945	163.2
3431	0.515	1.593	163.2
3432	0.52	1.5945	163.2
3433	0.515	1.5945	163.2
3434	0.515	1.5945	163.2
3435	0.515	1.593	163.05
3436	0.515	1.593	163.05
3437	0.515	1.593	163.05
3438	0.515	1.593	163.05
3439	0.515	1.5945	163.05
3440	0.52	1.593	163.05
3441	0.515	1.593	163.05
3442	0.515	1.5915	163.05
3443	0.515	1.5915	163.05
3444	0.515	1.593	163.05
3445	0.515	1.593	163.05
3446	0.51	1.593	163.05
3447	0.505	1.593	163.05
3448	0.505	1.593	163.05
3449	0.5	1.5915	163.05
3450	0.5	1.593	162.9
3451	0.495	1.5885	162.9
3452	0.495	1.5915	162.9
3453	0.5	1.59	162.9
3454	0.495	1.59	162.9
3455	0.5	1.59	162.9
3456	0.5	1.5915	162.9
3457	0.5	1.59	162.9
3458	0.5	1.5915	162.9
3459	0.505	1.59	162.9
3460	0.505	1.5885	162.9
3461	0.5	1.59	162.9
3462	0.505	1.5885	162.9
3463	0.505	1.5885	162.9
3464	0.505	1.5885	162.9
3465	0.5	1.5885	162.75
3466	0.5	1.59	162.9
3467	0.505	1.59	162.9
3468	0.505	1.5885	162.9
3469	0.505	1.5885	162.9
3470	0.505	1.59	162.9
3471	0.51	1.5885	162.9
3472	0.51	1.5885	162.75
3473	0.505	1.587	162.75
3474	0.505	1.587	162.75
3475	0.505	1.587	162.75
3476	0.5	1.587	162.75
3477	0.505	1.5855	162.75
3478	0.505	1.5855	162.75
3479	0.505	1.587	162.75
3480	0.51	1.5855	162.75
3481	0.515	1.587	162.75
3482	0.51	1.5885	162.75
3483	0.515	1.587	162.75
3484	0.51	1.587	162.6
3485	0.51	1.587	162.6
3486	0.51	1.5855	162.6
3487	0.515	1.5825	162.6
3488	0.51	1.5855	162.6
3489	0.515	1.5855	162.6
3490	0.515	1.5825	162.6
3491	0.51	1.584	162.6
3492	0.51	1.584	162.6
3493	0.515	1.584	162.6
3494	0.51	1.5825	162.45
3495	0.51	1.584	162.45
3496	0.51	1.5825	162.45
3497	0.51	1.5825	162.45
3498	0.51	1.5825	162.45
3499	0.505	1.581	162.45
3500	0.505	1.5825	162.45
3501	0.51	1.581	162.45
3502	0.505	1.581	162.45
3503	0.505	1.5795	162.45
3504	0.505	1.581	162.45
3505	0.51	1.5825	162.3
3506	0.505	1.5795	162.3
3507	0.505	1.5795	162.3
3508	0.505	1.581	162.3
3509	0.495	1.5795	162.3
3510	0.5	1.581	162.3
3511	0.505	1.578	162.3
3512	0.505	1.578	162.3
3513	0.505	1.5795	162.3
3514	0.505	1.5795	162.3
3515	0.505	1.5795	162.3
3516	0.51	1.5795	162.3
3517	0.505	1.5795	162.3
3518	0.505	1.578	162.3
3519	0.51	1.5795	162.3
3520	0.505	1.578	162.3
3521	0.505	1.578	162.3
3522	0.51	1.5795	162.3
3523	0.51	1.578	162.3
3524	0.515	1.5795	162.3
3525	0.51	1.5765	162.3
3526	0.51	1.5765	162.15
3527	0.505	1.578	162.3
3528	0.505	1.578	162.15
3529	0.505	1.5765	162.15
3530	0.505	1.5795	162.15
3531	0.505	1.578	162.15
3532	0.51	1.578	162.15
3533	0.51	1.5765	162.15
3534	0.51	1.5765	162.15
3535	0.505	1.5765	162.15
3536	0.51	1.578	162.15
3537	0.5	1.578	162.15
3538	0.5	1.5795	162.15
3539	0.495	1.578	162.15
3540	0.5	1.578	162.15
3541	0.5	1.578	162.15
3542	0.5	1.5765	162.15
3543	0.5	1.5765	162.15
3544	0.49	1.5765	162.15
3545	0.495	1.578	162.15
3546	0.485	1.5765	162.15
3547	0.49	1.578	162.15
3548	0.49	1.5765	162.15
3549	0.49	1.5765	162.15
3550	0.485	1.575	162.15
3551	0.48	1.575	162.0
3552	0.475	1.575	162.0
3553	0.475	1.575	162.0
3554	0.475	1.575	162.0
3555	0.475	1.5735	162.0
3556	0.47	1.575	162.0
3557	0.475	1.5735	162.0
3558	0.47	1.5735	162.0
3559	0.475	1.572	161.85
3560	0.475	1.5735	161.85
3561	0.47	1.5735	161.85
3562	0.465	1.572	161.85
3563	0.465	1.5735	161.85
3564	0.47	1.572	161.85
3565	0.455	1.5735	161.85
3566	0.46	1.572	161.85
3567	0.46	1.5735	162.0
3568	0.455	1.5735	162.0
3569	0.46	1.5735	162.0
3570	0.46	1.575	162.0
3571	0.455	1.5735	161.85
3572	0.455	1.572	161.85
3573	0.455	1.5735	161.85
3574	0.455	1.572	161.85
3575	0.455	1.572	161.85
3576	0.455	1.5705	161.85
3577	0.455	1.572	161.85
3578	0.46	1.572	161.85
3579	0.465	1.572	161.85
3580	0.465	1.572	161.85
3581	0.47	1.5705	161.85
3582	0.465	1.5705	161.85
3583	0.465	1.5705	161.85
3584	0.465	1.572	161.85
3585	0.465	1.5675	161.7
3586	0.465	1.5705	161.7
3587	0.465	1.569	161.7
3588	0.46	1.5675	161.7
3589	0.465	1.569	161.7
3590	0.475	1.569	161.7
3591	0.47	1.569	161.7
3592	0.47	1.569	161.7
3593	0.48	1.569	161.7
3594	0.47	1.5675	161.7
3595	0.475	1.5675	161.7
3596	0.48	1.5705	161.7
3597	0.475	1.569	161.7
3598	0.48	1.566	161.7
3599	0.48	1.5675	161.7
3600	0.48	1.566	161.7
3601	0.475	1.566	161.7
3602	0.48	1.566	161.55
3603	0.48	1.5675	161.7
3604	0.48	1.569	161.7
3605	0.475	1.5675	161.7
3606	-1.115	0.948	115.2
3607	-2.845	0.03	6.6
3608	-2.62	0.0	2.4
3609	-2.525	0.0015	2.25
3610	-2.44	0.0	2.25
3611	-2.37	0.0	2.25
3612	-2.305	0.0	2.25
3613	-2.25	0.0	2.25
3614	-2.2	0.0	2.25
3615	-2.16	-0.0015	2.25
3616	-2.12	0.0	2.25
3617	-2.08	0.0	2.25
3618	-2.05	0.0	2.25
3619	-2.02	0.0	2.25
3620	-1.99	0.0	2.25
3621	-1.965	0.0	2.25
3622	-1.94	0.0	2.25
3623	-1.92	0.0	2.25
3624	-1.895	0.0	2.25
3625	-1.88	0.0	2.25
3626	-1.86	0.0	2.25
3627	-1.845	0.0	2.25
3628	-1.825	-0.0015	2.25
3629	-1.81	0.0	2.25
3630	-1.795	0.0	2.25
3631	-1.78	0.0	2.25
3632	-1.765	0.0	2.25
3633	-1.755	0.0	2.25
3634	-1.74	0.0	2.25
3635	-1.73	0.0	2.25
3636	-1.715	0.0	2.25
3637	-1.705	0.0	2.25
3638	-1.695	0.0	2.25
3639	-1.685	0.0	2.25
3640	-1.675	0.0	2.25
3641	-1.665	0.0	2.25
3642	-1.655	0.0	2.25
3643	-1.65	0.0	2.25
3644	-1.64	0.0	2.25
3645	-1.63	0.0	2.25
3646	-1.625	0.0	2.25
3647	-1.615	0.0	2.25
3648	-1.61	0.0	2.25
3649	-1.6	0.0	2.25
3650	-1.595	0.0	2.25
3651	-1.585	0.0	2.25
3652	-1.58	0.0	2.25
3653	-1.575	0.0	2.25
3654	-1.57	0.0	2.25
3655	-1.565	0.0	2.25
3656	-1.56	0.0	2.25
3657	-1.555	0.0	2.25
3658	-1.55	0.0	2.25
3659	-1.545	0.0	2.25
3660	-1.54	0.0	2.25
3661	-1.535	0.0	2.25
3662	-1.53	0.0	2.25
3663	-1.53	0.0	2.25
3664	-1.525	0.0	2.25
3665	-1.52	0.0	2.25
3666	-1.52	0.0	2.25
3667	-1.515	0.0	2.25
3668	-1.51	0.0	2.25
3669	-1.505	0.0	2.25
3670	-1.5	0.0	2.25
3671	-1.495	0.0	2.25
3672	-1.495	0.0	2.25
3673	-1.49	0.0	2.25
3674	-1.485	0.0	2.25
3675	-1.48	0.0	2.25
3676	-1.475	0.0	2.25
3677	-1.47	0.0	2.25
3678	-1.465	0.0	2.25
3679	-1.465	0.0	2.25
3680	-1.46	0.0	2.25
3681	-1.46	0.0	2.25
3682	-1.455	0.0	2.25
3683	-1.45	0.0	2.25
3684	-1.45	0.0	2.25
3685	-1.445	0.0	2.25
3686	-1.445	0.0	2.25
3687	-1.44	0.0	2.25
3688	-1.44	0.0	2.25
3689	-1.44	0.0	2.25
3690	-1.435	0.0	2.25
3691	-1.43	0.0	2.25
3692	-1.425	0.0	2.25
3693	-1.425	0.0	2.25
3694	-1.42	0.0	2.25
3695	-1.42	0.0	2.25
3696	-1.415	0.0	2.25
3697	-1.415	0.0	2.25
3698	-1.41	0.0	2.25
3699	-1.41	0.0	2.25
3700	-1.41	0.0	2.25
3701	-1.41	0.0	2.25
3702	-1.405	0.0	2.25
3703	-1.4	0.0	2.25
3704	-1.4	-0.0015	2.25
3705	-1.4	0.0	2.25
3706	-1.4	0.0	2.25
3707	-1.4	0.0	2.25
3708	-1.395	0.0	2.25
3709	-1.39	0.0	2.25
3710	-1.39	0.0	2.25
3711	-1.395	0.0	2.25
3712	-1.39	0.0	2.25
3713	-1.39	0.0	2.25
3714	-1.39	0.0	2.25
3715	-1.385	0.0	2.25
3716	-1.385	0.0	2.25
3717	-1.38	0.0	2.25
3718	-1.375	0.0	2.25
3719	-1.375	0.0	2.25
3720	-1.375	0.0	2.25
3721	-1.375	0.0	2.25
3722	-1.375	0.0	2.25
3723	-1.37	0.0	2.25
3724	-1.37	0.0	2.25
3725	-1.37	0.0	2.25
3726	-1.365	0.0	2.25
3727	-1.365	0.0	2.25
3728	-1.365	0.0	2.25
3729	-1.36	0.0	2.25
3730	-1.36	0.0	2.25
3731	-1.36	0.0	2.25
3732	-1.355	0.0	2.25
3733	-1.355	0.0	2.1
3734	-1.355	0.0	2.25
3735	-1.355	0.0	2.25
3736	-1.355	0.0	2.25
3737	-1.355	0.0	2.25
3738	-1.35	0.0	2.25
3739	-1.35	0.0	2.25
3740	-1.35	0.0	2.25
3741	-1.35	0.0	2.25
3742	-1.345	0.0	2.25
3743	-1.345	0.0	2.1
3744	-1.345	0.0	2.25
3745	-1.34	0.0	2.25
3746	-1.34	0.0	2.25
3747	-1.34	0.0	2.25
3748	-1.34	0.0	2.25
3749	-1.335	0.0	2.25
3750	-1.34	0.0	2.25
3751	-1.335	0.0	2.25
3752	-1.335	0.0	2.25
3753	-1.335	0.0	2.25
3754	-1.335	0.0	2.25
3755	-1.33	0.0	2.25
3756	-1.33	0.0	2.25
3757	-1.33	0.0	2.25
3758	-1.33	0.0	2.25
3759	-1.335	0.0	2.25
3760	-1.33	0.0	2.25
3761	-1.33	0.0	2.25
3762	-1.33	0.0	2.25
3763	-1.33	0.0	2.25
3764	-1.33	0.0	2.25
3765	-1.335	0.0	2.25
3766	-1.33	0.0	2.25
3767	-1.33	0.0	2.25
3768	-1.335	0.0	2.25
3769	-1.33	0.0	2.25
3770	-1.33	-0.0015	2.25
3771	-1.33	0.0	2.25
3772	-1.33	0.0	2.25
3773	-1.33	0.0	2.25
3774	-1.33	-0.0015	2.25
3775	-1.325	0.0	2.1
3776	-1.325	0.0	2.25
3777	-1.325	0.0	2.1
3778	-1.32	0.0	2.25
3779	-1.325	0.0	2.25
3780	-1.325	0.0	2.25
3781	-1.325	0.0	2.25
3782	-1.325	0.0	2.25
3783	-1.325	0.0	2.25
3784	-1.325	0.0	2.25
3785	-1.325	0.0	2.25
3786	-1.32	0.0	2.25
3787	-1.32	0.0	2.25
3788	-1.32	0.0	2.25
3789	-1.315	0.0	2.25
3790	-1.315	0.0	2.25
3791	-1.31	0.0	2.25
3792	-1.31	0.0	2.25
3793	-1.305	0.0	2.25
3794	-1.305	0.0	2.25
3795	-1.305	0.0	2.25
3796	-1.3	0.0	2.25
3797	-1.3	0.0	2.25
3798	-1.3	0.0	2.25
3799	-1.3	0.0	2.25
3800	-1.295	0.0	2.25
3801	-1.295	0.0	2.25
3802	-1.29	0.0	2.25
3803	-1.29	0.0	2.25
3804	-1.29	0.0	2.25
3805	-1.285	0.0	2.25
3806	-1.285	0.0	2.25
3807	-1.285	0.0	2.25
3808	-1.285	0.0	2.25
3809	-1.285	0.0	2.25
3810	-1.285	0.0	2.25
3811	-1.285	0.0	2.25
3812	-1.285	0.0	2.25
3813	-1.285	0.0	2.25
3814	-1.285	0.0	2.1
3815	-1.285	0.0	2.25
3816	-1.29	0.0	2.25
3817	-1.285	0.0	2.25
3818	-1.285	-0.0015	2.25
3819	-1.285	0.0	2.25
3820	-1.285	0.0	2.25
3821	-1.285	0.0	2.25
3822	-1.285	0.0	2.25
3823	-1.28	0.0	2.25
3824	-1.28	0.0	2.25
3825	-1.28	0.0	2.25
3826	-1.28	0.0	2.25
3827	-1.275	0.0	2.25
3828	-1.275	0.0	2.25
3829	-1.275	0.0	2.25
3830	-1.275	0.0	2.25
3831	-1.275	0.0	2.25
3832	-1.27	0.0	2.25
3833	-1.27	0.0	2.25
3834	-1.27	0.0	2.25
3835	-1.27	0.0	2.1
3836	-1.265	0.0	2.1
3837	-1.265	0.0	2.1
3838	-1.26	0.0	2.1
3839	-1.26	0.0	2.25
3840	-1.26	0.0	2.25
3841	-1.255	0.0	2.25
3842	-1.255	0.0	2.25
3843	-1.25	0.0	2.25
3844	-1.255	0.0	2.25
3845	-1.255	0.0	2.25
3846	-1.25	0.0	2.25
3847	-1.25	0.0	2.25
3848	-1.25	0.0	2.25
3849	-1.25	0.0	2.25
3850	-1.255	0.0	2.25
3851	-1.25	0.0	2.25
3852	-1.25	0.0	2.25
3853	-1.255	0.0	2.25
3854	-1.255	0.0	2.25
3855	-1.255	0.0	2.25
3856	-1.25	0.0	2.25
3857	-1.25	0.0	2.25
3858	-1.25	0.0	2.25
3859	-1.255	0.0	2.25
3860	-1.255	0.0	2.25
3861	-1.255	0.0	2.25
3862	-1.25	0.0	2.25
3863	-1.25	0.0	2.25
3864	-1.25	0.0	2.25
3865	-1.25	0.0	2.25
3866	-1.25	0.0	2.25
3867	-1.25	0.0	2.25
3868	-1.245	0.0	2.25
3869	-1.245	0.0	2.1
3870	-1.245	0.0	2.1
3871	-1.245	0.0	2.1
3872	-1.245	0.0	2.1
3873	-1.245	0.0	2.1
3874	-1.245	0.0	2.25
3875	-1.24	0.0	2.1
3876	-1.24	0.0	2.1
3877	-1.24	-0.0015	2.1
3878	-1.24	0.0	2.1
3879	-1.24	0.0	2.1
3880	-1.24	0.0	2.1
3881	-1.245	0.0	2.1
3882	-1.245	0.0	2.1
3883	-1.245	0.0	2.1
3884	-1.245	0.0	2.1
3885	-1.245	0.0	2.1
3886	-1.245	0.0	2.25
3887	-1.245	0.0	2.25
3888	-1.24	0.0	2.25
3889	-1.24	0.0	2.25
3890	-1.245	0.0	2.1
3891	-1.245	0.0	2.25
3892	-1.245	0.0	2.25
3893	-1.245	0.0	2.1
3894	-1.245	0.0	2.1
3895	-1.245	0.0	2.1
3896	-1.245	0.0	2.1
3897	-1.245	0.0	2.1
3898	-1.245	0.0	2.1
3899	-1.245	0.0	2.1
3900	-1.24	0.0	2.1
3901	-1.24	0.0	2.1
3902	-1.24	0.0	2.25
3903	-1.24	0.0	2.25
3904	-1.24	0.0	2.25
3905	-1.24	0.0	2.25
3906	-1.24	0.0	2.25
3907	-1.24	0.0	2.25
3908	-1.24	0.0	2.25
3909	-1.24	0.0	2.25
3910	-1.24	0.0	2.25
3911	-1.24	0.0	2.25
3912	-1.24	-0.0015	2.25
3913	-1.24	0.0	2.25
3914	-1.24	0.0	2.25
3915	-1.24	0.0	2.25
3916	-1.235	0.0	2.25
3917	-1.24	0.0	2.1
3918	-1.24	0.0	2.25
3919	-1.24	0.0	2.25
3920	-1.24	0.0	2.1
3921	-1.24	0.0	2.25
3922	-1.24	0.0	2.1
3923	-1.235	0.0	2.1
3924	-1.235	0.0	2.1
3925	-1.24	0.0	2.25
3926	-1.245	0.0	2.25
3927	-1.25	0.0	2.1
3928	-1.26	0.0	2.1
3929	-1.26	0.0	2.1
3930	-1.26	0.0	2.1
3931	-1.26	-0.0015	2.1
3932	-1.26	0.0	2.1
3933	-1.255	0.0	2.1
3934	-1.255	0.0	2.25
3935	-1.255	0.0	2.25
3936	-1.25	0.0	2.1
3937	-1.245	0.0	2.25
3938	-1.245	0.0	2.1
3939	-1.245	0.0	2.25
3940	-1.25	0.0	2.1
3941	-1.25	0.0	2.25
3942	-1.245	0.0	2.25
3943	-1.245	0.0	2.1
3944	-1.245	0.0	2.1
3945	-1.245	0.0	2.25
3946	-1.245	0.0	2.1
3947	-1.245	0.0	2.25
3948	-1.245	0.0	2.1
3949	-1.245	0.0	2.25
3950	-1.245	0.0	2.1
3951	-1.245	0.0	2.1
3952	-1.245	0.0	2.1
3953	-1.245	0.0	2.25
3954	-1.24	0.0	2.1
3955	-1.24	0.0	2.1
3956	-1.235	0.0	2.1
3957	-1.235	0.0	2.1
3958	-1.235	0.0	2.1
3959	-1.235	0.0	2.1
3960	-1.235	0.0	2.1
3961	-1.23	0.0	2.25
3962	-1.235	0.0	2.1
3963	-1.235	0.0	2.25
3964	-1.235	0.0	2.1
3965	-1.235	0.0	2.1
3966	-1.235	0.0	2.1
3967	-1.235	0.0	2.1
3968	-1.235	0.0	2.1
3969	-1.23	0.0	2.1
3970	-1.23	0.0	2.25
3971	-1.23	0.0	2.1
3972	-1.23	0.0	2.1
3973	-1.23	0.0	2.1
3974	-1.23	0.0	2.1
3975	-1.225	0.0	2.25
3976	-1.23	0.0	2.25
3977	-1.23	0.0	2.1
3978	-1.23	0.0	2.25
3979	-1.225	0.0	2.1
3980	-1.225	0.0	2.25
3981	-1.225	0.0	2.25
3982	-1.225	0.0	2.1
3983	-1.225	0.0	2.25
3984	-1.225	0.0	2.1
3985	-1.225	0.0	2.1
3986	-1.225	0.0	2.25
3987	-1.225	0.0	2.25
3988	-1.225	0.0	2.25
3989	-1.225	0.0	2.25
3990	-1.225	0.0	2.25
3991	-1.225	0.0	2.25
3992	-1.225	0.0	2.25
3993	-1.225	0.0	2.25
3994	-1.225	0.0	2.25
3995	-1.225	0.0	2.25
3996	-1.225	0.0	2.25
3997	-1.22	0.0	2.25
3998	-1.225	0.0	2.1
3999	-1.225	0.0	2.25
4000	-1.225	0.0	2.25
4001	-1.225	0.0	2.25
4002	-1.225	0.0	2.25
4003	-1.225	0.0	2.25
4004	-1.225	0.0	2.25
4005	-1.22	0.0	2.25
4006	-1.22	0.0	2.25
4007	-1.22	0.0	2.25
4008	-1.22	0.0	2.25
4009	-1.22	0.0	2.25
4010	-1.22	0.0	2.25
4011	-1.225	0.0	2.25
4012	-1.225	0.0	2.25
4013	-1.225	0.0	2.25
4014	-1.225	0.0	2.25
4015	-1.225	0.0	2.25
4016	-1.225	0.0	2.25
4017	-1.225	0.0	2.25
4018	-1.225	0.0	2.25
4019	-1.225	0.0	2.25
4020	-1.23	0.0	2.25
4021	-1.23	0.0	2.25
4022	-1.225	0.0	2.25
4023	-1.225	0.0	2.25
4024	-1.23	0.0	2.25
4025	-1.23	0.0	2.25
4026	-1.23	0.0	2.25
4027	-1.23	0.0	2.25
4028	-1.23	0.0	2.25
4029	-1.23	0.0	2.1
4030	-1.23	0.0	2.1
4031	-1.23	0.0	2.1
4032	-1.23	0.0	2.1
4033	-1.23	0.0	2.1
4034	-1.23	0.0	2.1
4035	-1.23	0.0	2.1
4036	-1.23	0.0	2.1
4037	-1.23	0.0	2.25
4038	-1.23	0.0	2.1
4039	-1.23	0.0	2.1
4040	-1.235	0.0	2.1
4041	-1.23	0.0	2.1
4042	-1.23	0.0	2.25
4043	-1.23	0.0	2.25
4044	-1.235	0.0	2.25
4045	-1.235	0.0	2.25
4046	-1.23	0.0	2.25
4047	-1.23	-0.0015	2.25
4048	-1.23	0.0	2.25
4049	-1.23	0.0	2.25
4050	-1.225	0.0	2.1
4051	-1.225	0.0	2.1
4052	-1.225	0.0	2.1
4053	-1.225	0.0	2.1
4054	-1.225	0.0	2.1
4055	-1.225	0.0	2.1
4056	-1.225	0.0	2.1
4057	-1.225	0.0	2.1
4058	-1.22	0.0	2.1
4059	-1.225	0.0	2.1
4060	-1.225	0.0	2.25
4061	-1.22	0.0	2.25
4062	-1.225	0.0	2.1
4063	-1.225	0.0	2.1
4064	-1.225	0.0	2.1
4065	-1.225	0.0	2.1
4066	-1.225	0.0	2.1
4067	-1.225	0.0	2.1
4068	-1.22	0.0	2.1
4069	-1.225	0.0	2.1
4070	-1.225	0.0	2.1
4071	-1.225	0.0	2.1
4072	-1.22	0.0	2.1
4073	-1.225	0.0	2.1
4074	-1.225	0.0	2.1
4075	-1.225	0.0	2.1
4076	-1.225	0.0	2.1
4077	-1.23	0.0	2.1
4078	-1.225	-0.0015	2.1
4079	-1.23	0.0	2.1
4080	-1.23	0.0	2.1
4081	-1.23	0.0	2.1
4082	-1.225	0.0	2.1
4083	-1.225	0.0	2.1
4084	-1.23	0.0	2.1
4085	-1.23	0.0	2.1
4086	-1.225	0.0	2.1
4087	-1.225	0.0	2.1
4088	-1.225	0.0	2.1
4089	-1.23	0.0	2.1
4090	-1.23	0.0	2.1
4091	-1.23	0.0	2.1
4092	-1.235	0.0	2.1
4093	-1.235	0.0	2.1
4094	-1.24	0.0	2.1
4095	-1.24	0.0	2.1
4096	-1.24	0.0	2.1
4097	-1.24	0.0	2.1
4098	-1.24	0.0	2.1
4099	-1.24	0.0	2.1
4100	-1.24	0.0	2.1
4101	-1.24	0.0	2.1
4102	-1.24	0.0	2.1
4103	-1.24	0.0	2.1
4104	-1.24	0.0	2.1
4105	-1.24	0.0	2.1
4106	-1.235	0.0	2.1
4107	-1.235	0.0	2.1
4108	-1.235	0.0	2.1
4109	-1.235	0.0	2.1
4110	-1.23	0.0	2.1
4111	-1.23	0.0	2.1
4112	-1.23	0.0	2.1
4113	-1.23	0.0	2.1
4114	-1.23	0.0	2.1
4115	-1.23	0.0	2.1
4116	-1.23	0.0	2.1
4117	-1.23	-0.0015	2.1
4118	-1.225	0.0	2.25
4119	-1.225	0.0	2.25
4120	-1.225	0.0	2.25
4121	-1.215	0.0	2.1
4122	-1.195	0.0	2.1
4123	-1.185	0.0	2.1
4124	-1.17	0.0	2.25
4125	-1.16	0.0	2.1
4126	-1.155	0.0	2.1
4127	-1.145	0.0	2.1
4128	-1.14	0.0	2.1
4129	-1.135	-0.0015	2.1
4130	-1.13	0.0	2.1
4131	-1.125	0.0	2.1
4132	-1.12	0.0	2.1
4133	-1.115	0.0	2.1
4134	-1.115	0.0	2.1
4135	-1.11	0.0	2.1
4136	-1.11	0.0	2.1
4137	-1.11	0.0	2.1
4138	-1.105	0.0	2.1
4139	-1.1	0.0	2.1
4140	-1.1	0.0	2.1
4141	-1.1	0.0	2.1
4142	-1.095	0.0	2.1
4143	-1.095	0.0	2.1
4144	-1.095	0.0	2.1
4145	-1.095	0.0	2.1
4146	-1.09	0.0	2.1
4147	-1.09	0.0	2.1
4148	-1.09	0.0	2.1
4149	-1.09	0.0	2.1
4150	-1.085	0.0	2.1
4151	-1.085	0.0	2.1
4152	-1.085	0.0	2.1
4153	-1.08	0.0	2.1
4154	-1.08	0.0	2.1
4155	-1.08	0.0	2.1
4156	-1.075	0.0	2.1
4157	-1.075	0.0	2.1
4158	-1.075	0.0	2.1
4159	-1.07	0.0	2.1
4160	-1.07	0.0	2.1
4161	-1.07	0.0	2.1
4162	-1.07	0.0	2.1
4163	-1.065	0.0	2.1
4164	-1.065	0.0	2.1
4165	-1.065	0.0	2.1
4166	-1.065	0.0	2.1
4167	-1.06	0.0	2.1
4168	-1.065	0.0	2.1
4169	-1.065	0.0	2.1
4170	-1.065	0.0	2.1
4171	-1.065	0.0	2.1
4172	-1.065	0.0	2.1
4173	-1.065	0.0	2.1
4174	-1.065	0.0	2.1
4175	-1.065	0.0	2.1
4176	-1.065	0.0	2.1
4177	-1.06	0.0	2.1
4178	-1.065	0.0	2.1
4179	-1.065	0.0	2.1
4180	-1.065	0.0	2.1
4181	-1.065	0.0	2.1
4182	-1.065	0.0	2.1
4183	-1.065	0.0	2.1
4184	-1.065	0.0	2.1
4185	-1.065	0.0	2.1
4186	-1.065	0.0	2.1
4187	-1.065	0.0	2.1
4188	-1.065	0.0	2.1
4189	-1.06	0.0	2.1
4190	-1.06	0.0	2.1
4191	-1.06	0.0	2.1
4192	-1.06	0.0	2.1
4193	-1.06	0.0	2.1
4194	-1.06	0.0	2.1
4195	-1.06	0.0	2.1
4196	-1.06	0.0	2.1
4197	-1.06	0.0	2.1
4198	-1.06	0.0	2.1
4199	-1.055	0.0	2.1
4200	-1.06	0.0	2.1
4201	-1.055	0.0	2.1
4202	-1.055	0.0	2.1
4203	-1.06	0.0	2.1
4204	-1.055	0.0	2.1
4205	-1.055	0.0	2.1
4206	-1.055	0.0	2.1
4207	-1.055	0.0	2.1
4208	-1.055	0.0	2.1
4209	-1.055	0.0	2.1
4210	-1.055	0.0	2.1
4211	-1.055	0.0	2.1
4212	-1.055	0.0	2.1
4213	-1.055	0.0	2.1
4214	-1.055	0.0	2.1
4215	-1.05	0.0	2.1
4216	-1.055	0.0	2.1
4217	-1.055	0.0	2.1
4218	-1.05	0.0	2.1
4219	-1.055	0.0	2.1
4220	-1.055	0.0	2.1
4221	-1.055	0.0	2.1
4222	-1.055	0.0	2.1
4223	-1.055	0.0	2.1
4224	-1.055	0.0	2.1
4225	-1.05	0.0	2.1
4226	-1.055	-0.0015	2.1
4227	-1.055	0.0	2.1
4228	-1.055	0.0	2.1
4229	-1.05	0.0	2.1
4230	-1.05	0.0	2.1
4231	-1.05	0.0	2.1
4232	-1.05	0.0	2.1
4233	-1.05	0.0	2.1
4234	-1.05	0.0	2.1
4235	-1.05	0.0	2.1
4236	-1.05	0.0	2.1
4237	-1.05	0.0	2.1
4238	-1.05	0.0	2.1
4239	-1.055	0.0	2.1
4240	-1.055	0.0	2.1
4241	-1.055	0.0	2.1
4242	-1.055	0.0	2.1
4243	-1.055	0.0	2.1
4244	-1.06	0.0	2.1
4245	-1.06	0.0	2.1
4246	-1.06	0.0	2.1
4247	-1.06	0.0	2.1
4248	-1.06	0.0	2.1
4249	-1.06	0.0	2.1
4250	-1.065	0.0	2.1
4251	-1.065	0.0	2.1
4252	-1.07	0.0	2.1
4253	-1.065	0.0	2.1
4254	-1.065	0.0	2.1
4255	-1.065	0.0	2.1
4256	-1.065	0.0	2.1
4257	-1.065	0.0	2.1
4258	-1.065	0.0	2.1
4259	-1.065	0.0	2.1
4260	-1.065	0.0	2.1
4261	-1.065	0.0	2.1
4262	-1.07	0.0	2.1
4263	-1.065	0.0	2.1
4264	-1.065	0.0	2.1
4265	-1.065	0.0	2.1
4266	-1.065	0.0	2.1
4267	-1.065	0.0	2.1
4268	-1.065	0.0	2.1
4269	-1.07	0.0	2.1
4270	-1.07	0.0	2.1
4271	-1.065	0.0	2.1
4272	-1.065	0.0	2.1
4273	-1.065	0.0	2.1
4274	-1.065	0.0	2.1
4275	-1.065	0.0	2.1
4276	-1.065	0.0	2.1
4277	-1.065	0.0	2.1
4278	-1.065	0.0	2.1
4279	-1.065	0.0	2.1
4280	-1.065	0.0	2.1
4281	-1.065	0.0	2.1
4282	-1.065	0.0	2.1
4283	-1.065	0.0	2.1
4284	-1.065	0.0	2.1
4285	-1.065	0.0	2.1
4286	-1.065	0.0	2.1
4287	-1.065	0.0	2.1
4288	-1.065	0.0	2.1
4289	-1.065	0.0	2.1
4290	-1.06	0.0	2.1
4291	-1.06	0.0	2.1
4292	-1.065	0.0	2.1
4293	-1.06	0.0	2.1
4294	-1.06	0.0	2.1
4295	-1.06	0.0	2.1
4296	-1.06	0.0	2.1
4297	-1.06	0.0	2.1
4298	-1.055	0.0	2.1
4299	-1.055	0.0	2.1
4300	-1.055	0.0	2.1
4301	-1.05	0.0	2.1
4302	-1.05	0.0	2.1
4303	-1.05	0.0	2.1
4304	-1.05	0.0	2.1
4305	-1.05	0.0	2.1
4306	-1.045	0.0	2.1
4307	-1.045	0.0	2.1
4308	-1.045	0.0	2.1
4309	-1.045	0.0	2.1
4310	-1.045	0.0	2.1
4311	-1.045	0.0	2.1
4312	-1.045	0.0	2.1
4313	-1.045	0.0	2.1
4314	-1.045	0.0	2.1
4315	-1.045	-0.0015	2.1
4316	-1.045	0.0	2.1
4317	-1.045	0.0	2.1
4318	-1.045	0.0	2.1
4319	-1.045	0.0	2.1
4320	-1.045	0.0	2.1
4321	-1.045	0.0	2.1
4322	-1.045	0.0	2.1
4323	-1.045	0.0	2.1
4324	-1.045	0.0	2.1
4325	-1.045	0.0	2.1
4326	-1.045	0.0	2.1
4327	-1.045	0.0	2.1
4328	-1.045	0.0	2.1
4329	-1.045	0.0	2.1
4330	-1.045	0.0	2.1
4331	-1.045	0.0	2.1
4332	-1.045	0.0	2.1
4333	-1.045	0.0	2.1
4334	-1.045	0.0	2.1
4335	-1.045	0.0	2.1
4336	-1.045	0.0	2.1
4337	-1.045	0.0	2.1
4338	-1.045	0.0	2.1
4339	-1.05	0.0	2.1
4340	-1.05	0.0	2.1
4341	-1.05	0.0	2.1
4342	-1.05	0.0	2.1
4343	-1.05	0.0	2.1
4344	-1.045	-0.0015	2.1
4345	-1.05	0.0	2.1
4346	-1.045	0.0	2.1
4347	-1.045	0.0	2.1
4348	-1.05	0.0	2.1
4349	-1.05	0.0	2.1
4350	-1.05	0.0	2.1
4351	-1.04	0.0	2.1
4352	-1.025	0.0	2.1
4353	-1.015	0.0	2.1
4354	-1.005	0.0	2.1
4355	-0.99	0.0	2.1
4356	-0.975	0.0	2.1
4357	-0.95	0.0	2.1
4358	-0.925	0.0	2.1
4359	-0.905	0.0	2.1
4360	-0.875	0.0	2.1
4361	-0.835	0.0	2.1
4362	-0.795	0.0	2.1
4363	-0.765	0.0	2.1
4364	-0.76	0.0	2.1
4365	-0.775	0.0	2.1
4366	-0.8	0.0	2.1
4367	-0.82	0.0	2.1
4368	-0.845	0.0	2.1
4369	-0.865	0.0	2.1
4370	-0.885	0.0	2.1
4371	-0.9	0.0	2.1
4372	-0.915	0.0	2.1
4373	-0.925	0.0	2.1
4374	-0.935	0.0	2.1
4375	-0.945	0.0	2.1
4376	-0.95	0.0	2.1
4377	-0.955	0.0	2.1
4378	-0.965	0.0	2.1
4379	-0.965	0.0	2.1
4380	-0.975	0.0	2.1
4381	-0.975	0.0	2.1
4382	-0.98	0.0	2.1
4383	-0.985	0.0	2.1
4384	-0.99	0.0	2.1
4385	-0.995	0.0	2.1
4386	-0.995	0.0	2.1
4387	-0.995	0.0	2.1
4388	-1.0	0.0	2.1
4389	-1.005	0.0	2.1
4390	-1.005	0.0	2.1
4391	-1.01	0.0	2.1
4392	-1.01	0.0	2.1
4393	-1.01	0.0	2.1
4394	-1.015	0.0	2.1
4395	-1.015	0.0	2.1
4396	-1.015	0.0	2.1
4397	-1.02	0.0	2.1
4398	-1.02	0.0	2.1
4399	-1.02	0.0	2.1
4400	-1.02	0.0	2.1
4401	-1.02	0.0	2.1
4402	-1.02	0.0	2.1
4403	-1.025	0.0	2.1
4404	-1.025	0.0	2.1
4405	-1.025	0.0	2.1
4406	-1.025	0.0	2.1
4407	-1.025	0.0	2.1
4408	-1.03	0.0	2.1
4409	-1.03	0.0	2.1
4410	-1.03	0.0	2.1
4411	-1.03	0.0	2.1
4412	-1.03	0.0	2.1
4413	-1.03	0.0	2.1
4414	-1.035	0.0	2.1
4415	-1.035	0.0	2.1
4416	-1.035	0.0	2.1
4417	-1.035	0.0	2.1
4418	-1.04	0.0	2.1
4419	-1.04	0.0	2.1
4420	-1.035	0.0	2.1
4421	-1.035	0.0	2.1
4422	-1.04	0.0	2.1
4423	-1.035	0.0	2.1
4424	-1.035	0.0	2.1
4425	-1.035	0.0	2.1
4426	-1.035	-0.0015	2.1
4427	-1.04	0.0	2.1
4428	-1.04	0.0	2.1
4429	-1.04	0.0	2.1
4430	-1.04	0.0	2.1
4431	-1.04	0.0	2.1
4432	-1.04	0.0	2.1
4433	-1.04	0.0	2.1
4434	-1.04	0.0	2.1
4435	-1.04	0.0	2.1
4436	-1.045	0.0	2.1
4437	-1.045	0.0	2.1
4438	-1.045	0.0	2.1
4439	-1.045	0.0	2.1
4440	-1.045	0.0	2.1
4441	-1.045	0.0	2.1
4442	-1.05	0.0	2.1
4443	-1.045	0.0	2.1
4444	-1.045	0.0	2.1
4445	-1.05	0.0	2.1
4446	-1.05	0.0	2.1
4447	-1.05	0.0	2.1
4448	-1.045	0.0	2.1
4449	-1.045	0.0	2.1
4450	-1.045	0.0	2.1
4451	-1.045	0.0	2.1
4452	-1.045	0.0	2.1
4453	-1.045	0.0	2.1
4454	-1.05	0.0	2.1
4455	-1.05	0.0	2.1
4456	-1.05	0.0	2.1
4457	-1.05	0.0	2.1
4458	-1.05	0.0	2.1
4459	-1.045	0.0	2.1
4460	-1.045	0.0	2.1
4461	-1.045	0.0	2.1
4462	-1.05	0.0	2.1
4463	-1.045	0.0	2.1
4464	-1.05	0.0	2.1
4465	-1.05	0.0	2.1
4466	-1.045	0.0	2.1
4467	-1.045	0.0	2.1
4468	-1.045	0.0	2.1
4469	-1.045	0.0	2.1
4470	-1.045	0.0	2.1
4471	-1.045	0.0	2.1
4472	-1.045	-0.0015	2.1
4473	-1.05	0.0	2.1
4474	-1.05	0.0	2.1
4475	-1.05	0.0	2.1
4476	-1.05	0.0	2.1
4477	-1.05	0.0	2.1
4478	-1.05	0.0	2.1
4479	-1.05	0.0	2.1
4480	-1.05	0.0	2.1
4481	-1.05	0.0	2.1
4482	-1.055	0.0	2.1
4483	-1.055	0.0	2.1
4484	-1.055	0.0	2.1
4485	-1.055	0.0	2.1
4486	-1.055	0.0	2.1
4487	-1.055	0.0	2.1
4488	-1.055	-0.0015	2.1
4489	-1.06	0.0	2.1
4490	-1.06	0.0	2.1
4491	-1.06	0.0	2.1
4492	-1.06	0.0	2.1
4493	-1.06	0.0	2.1
4494	-1.06	0.0	2.1
4495	-1.06	0.0	2.1
4496	-1.06	0.0	2.1
4497	-1.065	0.0	2.1
4498	-1.065	0.0	2.1
4499	-1.065	0.0	2.1
4500	-1.065	0.0	2.1
4501	-1.07	0.0	2.1
4502	-1.07	0.0	2.1
4503	-1.07	0.0	2.1
4504	-1.07	0.0	2.1
4505	-1.075	0.0	2.1
4506	-1.075	0.0	2.1
4507	-1.08	0.0	2.1
4508	-1.075	0.0	2.1
4509	-1.075	0.0	2.1
4510	-1.075	0.0	2.1
4511	-1.075	0.0	2.1
4512	-1.075	0.0	2.1
4513	-1.075	0.0	2.1
4514	-1.075	0.0	2.1
4515	-1.075	0.0	2.1
4516	-1.075	0.0	2.1
4517	-1.075	0.0	2.1
4518	-1.075	0.0	2.1
4519	-1.075	0.0	2.1
4520	-1.075	0.0	2.1
4521	-1.075	0.0	2.1
4522	-1.07	0.0	2.1
4523	-1.07	0.0	2.1
4524	-1.07	0.0	2.1
4525	-0.77	0.8775	94.95
4526	2.465	1.656	165.75
4527	2.07	1.656	165.75
4528	1.93	1.656	165.75
4529	1.815	1.656	165.75
4530	1.72	1.6575	165.75
4531	1.635	1.656	165.75
4532	1.56	1.6545	165.75
4533	1.495	1.656	165.75
4534	1.43	1.6575	165.75
4535	1.38	1.656	165.75
4536	1.34	1.656	165.75
4537	1.295	1.6575	165.75
4538	1.255	1.656	165.75
4539	1.22	1.6545	165.75
4540	1.18	1.656	165.75
4541	1.14	1.6575	165.75
4542	1.12	1.656	165.75
4543	1.09	1.653	165.75
4544	1.065	1.6545	165.75
4545	1.04	1.6545	165.75
4546	1.015	1.653	165.6
4547	0.99	1.653	165.6
4548	0.97	1.6545	165.6
4549	0.955	1.653	165.6
4550	0.935	1.653	165.6
4551	0.92	1.653	165.6
4552	0.9	1.6515	165.6
4553	0.885	1.6515	165.6
4554	0.875	1.6515	165.6
4555	0.86	1.6515	165.6
4556	0.84	1.65	165.6
4557	0.83	1.65	165.45
4558	0.815	1.65	165.6
4559	0.805	1.6485	165.6
4560	0.795	1.65	165.6
4561	0.79	1.65	165.45
4562	0.775	1.6485	165.45
4563	0.765	1.6485	165.45
4564	0.75	1.6485	165.45
4565	0.745	1.6485	165.45
4566	0.73	1.647	165.45
4567	0.72	1.647	165.45
4568	0.72	1.647	165.45
4569	0.71	1.6485	165.45
4570	0.695	1.647	165.45
4571	0.675	1.647	165.45
4572	0.67	1.6455	165.3
4573	0.67	1.6455	165.3
4574	0.66	1.6455	165.3
4575	0.655	1.6455	165.3
4576	0.655	1.644	165.3
4577	0.65	1.644	165.3
4578	0.64	1.6455	165.3
4579	0.64	1.644	165.3
4580	0.63	1.644	165.3
4581	0.625	1.644	165.3
4582	0.625	1.644	165.3
4583	0.62	1.644	165.15
4584	0.615	1.644	165.15
4585	0.605	1.6425	165.15
4586	0.6	1.6425	165.15
4587	0.595	1.6425	165.15
4588	0.59	1.641	165.15
4589	0.59	1.6425	165.15
4590	0.585	1.641	165.15
4591	0.575	1.638	165.0
4592	0.575	1.6395	165.0
4593	0.565	1.6395	165.0
4594	0.56	1.6395	165.0
4595	0.555	1.641	165.0
4596	0.555	1.638	165.0
4597	0.545	1.6395	165.0
4598	0.545	1.638	165.0
4599	0.535	1.6365	165.0
4600	0.535	1.638	164.85
4601	0.53	1.6365	164.85
4602	0.53	1.638	164.85
4603	0.525	1.638	164.85
4604	0.52	1.6365	164.85
4605	0.525	1.6365	164.85
4606	0.515	1.6365	164.85
4607	0.515	1.6365	164.85
4608	0.515	1.635	164.85
4609	0.51	1.6365	164.85
4610	0.5	1.6365	164.85
4611	0.505	1.6365	164.85
4612	0.5	1.635	164.85
4613	0.5	1.6365	164.85
4614	0.5	1.635	164.85
4615	0.495	1.6365	164.85
4616	0.495	1.6335	164.7
4617	0.49	1.635	164.7
4618	0.485	1.632	164.7
4619	0.48	1.635	164.7
4620	0.475	1.6335	164.7
4621	0.475	1.632	164.7
4622	0.47	1.632	164.7
4623	0.47	1.632	164.7
4624	0.465	1.632	164.7
4625	0.46	1.632	164.7
4626	0.465	1.632	164.7
4627	0.455	1.6335	164.7
4628	0.455	1.632	164.7
4629	0.455	1.632	164.7
4630	0.455	1.632	164.7
4631	0.45	1.6305	164.55
4632	0.445	1.6305	164.55
4633	0.445	1.6305	164.55
4634	0.445	1.629	164.55
4635	0.44	1.6275	164.55
4636	0.435	1.6305	164.55
4637	0.43	1.629	164.55
4638	0.43	1.629	164.55
4639	0.425	1.629	164.55
4640	0.43	1.6305	164.55
4641	0.425	1.629	164.55
4642	0.425	1.6305	164.4
4643	0.415	1.6275	164.4
4644	0.415	1.6275	164.4
4645	0.415	1.626	164.4
4646	0.41	1.626	164.4
4647	0.41	1.626	164.25
4648	0.41	1.626	164.4
4649	0.41	1.626	164.25
4650	0.4	1.626	164.4
4651	0.4	1.626	164.25
4652	0.4	1.626	164.25
4653	0.395	1.6245	164.25
4654	0.39	1.6245	164.25
4655	0.39	1.6245	164.25
4656	0.39	1.6245	164.25
4657	0.395	1.6215	164.25
4658	0.385	1.6215	164.25
4659	0.385	1.6245	164.25
4660	0.38	1.623	164.25
4661	0.38	1.6215	164.25
4662	0.375	1.6215	164.1
4663	0.375	1.6215	164.1
4664	0.375	1.62	164.1
4665	0.37	1.6215	164.1
4666	0.37	1.6215	164.1
4667	0.37	1.6215	164.1
4668	0.37	1.6215	164.1
4669	0.37	1.6215	164.1
4670	0.37	1.6215	164.1
4671	0.37	1.6215	164.1
4672	0.365	1.6215	164.1
4673	0.365	1.62	164.1
4674	0.36	1.6215	164.1
4675	0.355	1.62	164.1
4676	0.355	1.62	164.1
4677	0.355	1.6185	163.95
4678	0.355	1.6185	163.95
4679	0.345	1.62	163.95
4680	0.345	1.617	163.95
4681	0.345	1.617	163.95
4682	0.34	1.617	163.95
4683	0.34	1.617	163.95
4684	0.345	1.617	163.95
4685	0.34	1.6185	163.95
4686	0.335	1.6185	163.8
4687	0.335	1.617	163.8
4688	0.33	1.617	163.8
4689	0.33	1.617	163.8
4690	0.335	1.614	163.8
4691	0.335	1.6155	163.8
4692	0.335	1.617	163.8
4693	0.335	1.617	163.8
4694	0.335	1.614	163.8
4695	0.33	1.617	163.8
4696	0.33	1.6155	163.8
4697	0.33	1.6155	163.8
4698	0.325	1.614	163.8
4699	0.33	1.614	163.8
4700	0.325	1.6155	163.8
4701	0.32	1.614	163.8
4702	0.32	1.6155	163.65
4703	0.315	1.614	163.65
4704	0.305	1.611	163.65
4705	0.31	1.6125	163.65
4706	0.305	1.6125	163.65
4707	0.305	1.611	163.65
4708	0.305	1.611	163.65
4709	0.3	1.611	163.65
4710	0.31	1.6125	163.65
4711	0.3	1.6125	163.65
4712	0.305	1.6095	163.5
4713	0.305	1.6095	163.5
4714	0.3	1.611	163.5
4715	0.3	1.608	163.5
4716	0.295	1.6095	163.5
4717	0.295	1.611	163.5
4718	0.295	1.6095	163.5
4719	0.29	1.611	163.5
4720	0.285	1.608	163.5
4721	0.29	1.6095	163.5
4722	0.29	1.608	163.5
4723	0.29	1.6095	163.5
4724	0.285	1.608	163.5
4725	0.285	1.608	163.5
4726	0.28	1.608	163.5
4727	0.275	1.6065	163.5
4728	0.275	1.6065	163.5
4729	0.27	1.608	163.5
4730	0.275	1.6065	163.5
4731	0.27	1.6065	163.5
4732	0.275	1.605	163.5
4733	0.275	1.6065	163.35
4734	0.275	1.6065	163.35
4735	0.27	1.605	163.35
4736	0.275	1.6035	163.35
4737	0.275	1.6065	163.35
4738	0.28	1.605	163.35
4739	0.28	1.605	163.35
4740	0.28	1.605	163.35
4741	0.275	1.605	163.35
4742	0.275	1.6035	163.35
4743	0.275	1.6035	163.35
4744	0.28	1.6035	163.35
4745	0.28	1.6035	163.35
4746	0.285	1.605	163.35
4747	0.285	1.6035	163.35
4748	0.28	1.605	163.35
4749	0.285	1.602	163.35
4750	0.285	1.6035	163.35
4751	0.29	1.6035	163.35
4752	0.285	1.6035	163.35
4753	0.29	1.6035	163.35
4754	0.295	1.6035	163.35
4755	0.29	1.602	163.35
4756	0.29	1.602	163.35
4757	0.29	1.6005	163.35
4758	0.295	1.6035	163.2
4759	0.29	1.602	163.2
4760	0.295	1.6005	163.2
4761	0.295	1.6005	163.2
4762	0.29	1.6005	163.2
4763	0.29	1.6005	163.2
4764	0.29	1.599	163.2
4765	0.29	1.6005	163.2
4766	0.29	1.599	163.2
4767	0.285	1.599	163.2
4768	0.285	1.6005	163.2
4769	0.29	1.5975	163.2
4770	0.285	1.5975	163.2
4771	0.285	1.5975	163.2
4772	0.285	1.5975	163.2
4773	0.285	1.5975	163.2
4774	0.285	1.5975	163.2
4775	0.285	1.599	163.2
4776	0.29	1.599	163.05
4777	0.285	1.596	163.05
4778	0.285	1.5975	163.05
4779	0.285	1.5975	163.05
4780	0.28	1.596	163.05
4781	0.285	1.596	163.05
4782	0.285	1.5975	163.05
4783	0.285	1.596	163.05
4784	0.285	1.5945	163.05
4785	0.28	1.596	163.05
4786	0.28	1.596	163.05
4787	0.28	1.596	163.05
4788	0.28	1.5945	163.05
4789	0.28	1.596	163.05
4790	0.28	1.5945	163.05
4791	0.275	1.5945	163.05
4792	0.275	1.5975	163.05
4793	0.28	1.5945	163.05
4794	0.275	1.5945	162.9
4795	0.275	1.5945	162.9
4796	0.28	1.593	162.9
4797	0.28	1.5945	162.9
4798	0.275	1.5915	162.9
4799	0.275	1.593	162.9
4800	0.28	1.5945	162.9
4801	0.275	1.593	162.9
4802	0.27	1.5945	162.9
4803	0.275	1.593	162.75
4804	0.27	1.593	162.9
4805	0.275	1.593	162.75
4806	0.275	1.5915	162.75
4807	0.28	1.5885	162.75
4808	0.275	1.5885	162.6
4809	0.275	1.5885	162.6
4810	0.275	1.5915	162.75
4811	0.28	1.5915	162.75
4812	0.27	1.5915	162.75
4813	0.27	1.59	162.6
4814	0.27	1.59	162.6
4815	0.27	1.5915	162.75
4816	0.27	1.59	162.75
4817	0.27	1.59	162.75
4818	0.275	1.59	162.6
4819	0.275	1.59	162.75
4820	0.275	1.5885	162.6
4821	0.265	1.5885	162.6
4822	0.265	1.5885	162.6
4823	0.27	1.59	162.6
4824	0.265	1.59	162.6
4825	0.265	1.5885	162.6
4826	0.265	1.5885	162.6
4827	0.265	1.5885	162.6
4828	0.265	1.587	162.6
4829	0.26	1.587	162.6
4830	0.265	1.5855	162.45
4831	0.265	1.587	162.45
4832	0.26	1.5855	162.45
4833	0.26	1.584	162.45
4834	0.26	1.5855	162.45
4835	0.26	1.5855	162.45
4836	0.26	1.584	162.45
4837	0.26	1.5855	162.45
4838	0.26	1.584	162.3
4839	0.26	1.5825	162.3
4840	0.26	1.584	162.3
4841	0.26	1.5855	162.3
4842	0.265	1.584	162.45
4843	0.26	1.584	162.3
4844	0.26	1.5825	162.3
4845	0.26	1.584	162.3
4846	0.26	1.5825	162.3
4847	0.255	1.5825	162.3
4848	0.255	1.5825	162.3
4849	0.255	1.584	162.3
4850	0.255	1.5825	162.3
4851	0.255	1.5825	162.3
4852	0.26	1.5825	162.3
4853	0.26	1.5825	162.3
4854	0.26	1.584	162.3
4855	0.255	1.581	162.3
4856	0.255	1.5795	162.15
4857	0.255	1.581	162.15
4858	0.255	1.5825	162.15
4859	0.255	1.581	162.15
4860	0.255	1.581	162.15
4861	0.25	1.581	162.15
4862	0.25	1.5825	162.15
4863	0.245	1.5795	162.15
4864	0.24	1.581	162.15
4865	0.235	1.5795	162.15
4866	0.24	1.5795	162.15
4867	0.24	1.5795	162.15
4868	0.24	1.581	162.15
4869	0.24	1.581	162.15
4870	0.24	1.5795	162.15
4871	0.235	1.581	162.15
4872	0.24	1.5795	162.15
4873	0.24	1.5795	162.15
4874	0.235	1.5795	162.0
4875	0.245	1.5795	162.0
4876	0.245	1.5765	162.0
4877	0.24	1.578	162.0
4878	0.245	1.578	162.0
4879	0.245	1.578	162.0
4880	0.24	1.5765	162.0
4881	0.24	1.5765	162.0
4882	0.245	1.578	162.0
4883	0.24	1.578	162.0
4884	0.24	1.5765	162.0
4885	0.235	1.5765	162.0
4886	0.22	1.578	162.0
4887	0.23	1.5765	162.0
4888	0.235	1.575	162.0
4889	0.225	1.5765	162.0
4890	0.22	1.5765	162.0
4891	0.225	1.5765	162.0
4892	0.225	1.5765	162.0
4893	0.23	1.5765	162.0
4894	0.23	1.5765	162.0
4895	0.23	1.5765	162.0
4896	0.23	1.5765	162.0
4897	0.23	1.575	161.85
4898	0.22	1.575	161.85
4899	0.225	1.575	161.85
4900	0.22	1.5765	161.85
4901	0.215	1.575	161.85
4902	0.205	1.575	161.85
4903	0.205	1.575	161.85
4904	0.205	1.5735	161.85
4905	0.205	1.575	161.85
4906	0.185	1.575	161.85
4907	0.185	1.575	161.85
4908	0.185	1.5735	161.85
4909	0.185	1.575	161.85
4910	0.19	1.575	161.85
4911	0.19	1.575	161.85
4912	0.195	1.572	161.85
4913	0.195	1.575	161.85
4914	0.2	1.572	161.85
4915	0.2	1.5735	161.7
4916	0.2	1.5705	161.7
4917	0.205	1.575	161.7
4918	0.2	1.5735	161.85
4919	0.21	1.5735	161.7
4920	0.205	1.5735	161.7
4921	0.21	1.572	161.7
4922	0.21	1.5705	161.7
4923	0.21	1.572	161.7
4924	0.215	1.5735	161.7
4925	0.215	1.5735	161.7
4926	0.21	1.572	161.7
4927	0.215	1.5705	161.7
4928	0.215	1.5735	161.7
4929	0.215	1.5705	161.7
4930	0.21	1.5705	161.7
4931	0.215	1.572	161.7
4932	0.215	1.572	161.7
4933	0.21	1.569	161.55
4934	0.21	1.569	161.55
4935	0.215	1.5705	161.55
4936	0.215	1.569	161.55
4937	0.215	1.569	161.55
4938	0.215	1.569	161.55
4939	0.215	1.569	161.55
4940	0.215	1.5705	161.55
4941	0.22	1.5675	161.55
4942	0.215	1.5675	161.55
4943	0.21	1.5675	161.55
4944	0.215	1.5675	161.55
4945	0.215	1.5675	161.4
4946	0.215	1.5675	161.4
4947	0.215	1.5675	161.4
4948	0.21	1.5675	161.4
4949	0.21	1.5675	161.4
4950	0.21	1.5675	161.4
4951	0.215	1.5675	161.4
4952	0.21	1.5675	161.4
4953	0.21	1.5675	161.4
4954	0.21	1.566	161.4
4955	0.21	1.5645	161.4
4956	0.21	1.566	161.4
4957	0.205	1.5675	161.4
4958	0.21	1.566	161.4
4959	0.21	1.5675	161.4
4960	0.21	1.5645	161.4
4961	0.21	1.566	161.4
4962	0.04	1.494	157.5
4963	-0.85	1.0275	126.0
4964	-3.04	0.0555	10.8
4965	-2.8	0.0	2.55
4966	-2.67	0.0	2.4
4967	-2.565	0.0	2.4
4968	-2.475	0.0	2.4
4969	-2.395	0.0	2.4
4970	-2.325	0.0	2.4
4971	-2.26	0.0	2.4
4972	-2.21	0.0	2.4
4973	-2.16	0.0	2.4
4974	-2.115	0.0	2.4
4975	-2.07	0.0	2.4
4976	-2.035	0.0	2.4
4977	-2.0	0.0	2.4
4978	-1.965	0.0	2.4
4979	-1.94	0.0	2.4
4980	-1.91	0.0	2.4
4981	-1.885	0.0	2.4
4982	-1.86	0.0	2.4
4983	-1.835	0.0	2.4
4984	-1.82	0.0	2.4
4985	-1.8	0.0	2.4
4986	-1.78	0.0	2.4
4987	-1.765	0.0	2.4
4988	-1.745	0.0	2.4
4989	-1.73	0.0	2.4
4990	-1.71	0.0	2.4
4991	-1.695	0.0	2.4
4992	-1.685	0.0	2.4
4993	-1.67	0.0	2.4
4994	-1.66	0.0	2.4
4995	-1.65	0.0	2.4
4996	-1.635	0.0	2.4
4997	-1.625	0.0	2.4
4998	-1.615	0.0	2.4
4999	-1.605	0.0	2.4
5000	-1.6	0.0	2.4
5001	-1.59	0.0	2.4
5002	-1.58	0.0	2.4
5003	-1.57	0.0	2.4
5004	-1.565	0.0	2.4
5005	-1.555	0.0	2.4
5006	-1.55	0.0	2.4
5007	-1.54	0.0	2.4
5008	-1.53	0.0	2.4
5009	-1.525	0.0	2.4
5010	-1.52	0.0	2.4
5011	-1.51	0.0	2.4
5012	-1.505	0.0	2.4
5013	-1.495	0.0	2.4
5014	-1.49	0.0	2.4
5015	-1.485	0.0	2.4
5016	-1.48	0.0	2.4
5017	-1.475	0.0	2.4
5018	-1.47	0.0	2.4
5019	-1.465	0.0	2.4
5020	-1.46	0.0	2.4
5021	-1.455	0.0	2.4
5022	-1.45	0.0	2.4
5023	-1.445	0.0	2.4
5024	-1.44	0.0	2.4
5025	-1.435	0.0	2.4
5026	-1.425	0.0	2.4
5027	-1.42	0.0	2.4
5028	-1.415	0.0	2.4
5029	-1.41	0.0	2.4
5030	-1.405	0.0	2.4
5031	-1.4	0.0	2.4
5032	-1.395	0.0	2.4
5033	-1.395	0.0	2.4
5034	-1.39	0.0	2.4
5035	-1.39	0.0	2.4
5036	-1.385	0.0	2.4
5037	-1.38	0.0	2.4
5038	-1.375	0.0	2.4
5039	-1.375	0.0	2.4
5040	-1.37	0.0	2.4
5041	-1.37	0.0	2.4
5042	-1.365	-0.0015	2.4
5043	-1.365	0.0	2.4
5044	-1.365	0.0	2.4
5045	-1.36	0.0	2.4
5046	-1.36	0.0	2.4
5047	-1.355	0.0	2.4
5048	-1.355	0.0	2.4
5049	-1.35	0.0	2.4
5050	-1.345	0.0	2.4
5051	-1.345	0.0	2.4
5052	-1.345	0.0	2.4
5053	-1.34	0.0	2.4
5054	-1.34	0.0	2.4
5055	-1.34	0.0	2.4
5056	-1.335	0.0	2.4
5057	-1.33	0.0	2.4
5058	-1.33	0.0	2.4
5059	-1.325	0.0	2.4
5060	-1.325	0.0	2.4
5061	-1.32	0.0	2.4
5062	-1.32	0.0	2.4
5063	-1.32	0.0	2.4
5064	-1.32	0.0	2.4
5065	-1.32	-0.0015	2.4
5066	-1.315	0.0	2.4
5067	-1.31	0.0	2.4
5068	-1.31	0.0	2.4
5069	-1.305	0.0	2.4
5070	-1.305	0.0	2.4
5071	-1.305	0.0	2.4
5072	-1.305	0.0	2.4
5073	-1.3	0.0	2.4
5074	-1.3	0.0	2.4
5075	-1.3	0.0	2.4
5076	-1.3	0.0	2.4
5077	-1.295	0.0	2.4
5078	-1.295	0.0	2.4
5079	-1.29	0.0	2.4
5080	-1.29	0.0	2.4
5081	-1.29	0.0	2.4
5082	-1.29	0.0	2.4
5083	-1.285	0.0	2.4
5084	-1.285	0.0	2.4
5085	-1.285	0.0	2.4
5086	-1.285	0.0	2.4
5087	-1.28	0.0	2.4
5088	-1.28	0.0	2.4
5089	-1.275	0.0	2.4
5090	-1.275	0.0	2.25
5091	-1.275	0.0	2.4
5092	-1.275	0.0	2.25
5093	-1.27	-0.0015	2.4
5094	-1.27	0.0	2.4
5095	-1.27	0.0	2.4
5096	-1.27	0.0	2.25
5097	-1.265	0.0	2.25
5098	-1.265	0.0	2.25
5099	-1.265	0.0	2.25
5100	-1.265	0.0	2.4
5101	-1.265	0.0	2.4
5102	-1.26	0.0	2.25
5103	-1.26	0.0	2.4
5104	-1.26	0.0	2.4
5105	-1.26	0.0	2.4
5106	-1.26	0.0	2.4
5107	-1.26	0.0	2.4
5108	-1.26	0.0	2.4
5109	-1.255	0.0	2.4
5110	-1.255	0.0	2.4
5111	-1.255	0.0	2.4
5112	-1.255	0.0	2.4
5113	-1.255	0.0	2.4
5114	-1.255	0.0	2.4
5115	-1.255	0.0	2.4
5116	-1.25	0.0	2.4
5117	-1.25	0.0	2.4
5118	-1.25	0.0	2.4
5119	-1.25	0.0	2.25
5120	-1.25	0.0	2.25
5121	-1.245	0.0	2.4
5122	-1.245	0.0	2.4
5123	-1.245	0.0	2.4
5124	-1.245	0.0	2.4
5125	-1.245	0.0	2.4
5126	-1.245	0.0	2.4
5127	-1.24	0.0	2.4
5128	-1.24	0.0	2.4
5129	-1.24	0.0	2.4
5130	-1.24	0.0	2.4
5131	-1.24	0.0	2.4
5132	-1.24	0.0	2.4
5133	-1.24	0.0	2.4
5134	-1.235	0.0	2.4
5135	-1.235	0.0	2.4
5136	-1.235	0.0	2.4
5137	-1.235	0.0	2.4
5138	-1.235	0.0	2.4
5139	-1.23	0.0	2.4
5140	-1.235	0.0	2.4
5141	-1.235	0.0	2.4
5142	-1.23	0.0	2.4
5143	-1.23	0.0	2.4
5144	-1.23	0.0	2.4
5145	-1.23	0.0	2.4
5146	-1.23	0.0	2.4
5147	-1.23	0.0	2.4
5148	-1.23	0.0	2.4
5149	-1.23	0.0	2.4
5150	-1.225	0.0	2.4
5151	-1.225	0.0	2.4
5152	-1.225	0.0	2.4
5153	-1.225	0.0	2.4
5154	-1.225	0.0	2.4
5155	-1.22	0.0	2.4
5156	-1.22	0.0	2.4
5157	-1.22	0.0	2.4
5158	-1.22	0.0	2.4
5159	-1.22	0.0	2.4
5160	-1.22	0.0	2.4
5161	-1.22	0.0	2.4
5162	-1.215	0.0	2.4
5163	-1.215	0.0	2.4
5164	-1.215	0.0	2.4
5165	-1.215	0.0	2.4
5166	-1.215	0.0	2.4
5167	-1.215	0.0	2.4
5168	-1.215	0.0	2.4
5169	-1.215	0.0	2.4
5170	-1.21	0.0	2.4
5171	-1.21	0.0	2.4
5172	-1.21	0.0	2.4
5173	-1.21	0.0	2.4
5174	-1.21	0.0	2.4
5175	-1.21	0.0	2.4
5176	-1.21	0.0	2.25
5177	-1.21	0.0	2.25
5178	-1.21	0.0	2.4
5179	-1.21	0.0	2.25
5180	-1.205	0.0	2.25
5181	-1.205	0.0	2.25
5182	-1.205	0.0	2.25
5183	-1.21	0.0	2.25
5184	-1.205	0.0	2.25
5185	-1.205	0.0	2.25
5186	-1.205	0.0	2.25
5187	-1.205	0.0	2.25
5188	-1.205	0.0	2.4
5189	-1.205	0.0	2.4
5190	-1.205	0.0	2.4
5191	-1.205	0.0	2.4
5192	-1.205	0.0	2.4
5193	-1.205	0.0	2.4
5194	-1.205	0.0	2.4
5195	-1.2	0.0	2.4
5196	-1.2	0.0	2.4
5197	-1.205	0.0	2.4
5198	-1.2	0.0	2.25
5199	-1.205	0.0	2.4
5200	-1.205	0.0	2.4
5201	-1.205	0.0	2.25
5202	-1.205	0.0	2.4
5203	-1.205	0.0	2.4
5204	-1.205	0.0	2.4
5205	-1.205	-0.0015	2.4
5206	-1.205	0.0	2.4
5207	-1.205	0.0	2.4
5208	-1.205	0.0	2.4
5209	-1.205	0.0	2.4
5210	-1.205	0.0	2.4
5211	-1.205	0.0	2.25
5212	-1.205	0.0	2.4
5213	-1.205	0.0	2.4
5214	-1.205	0.0	2.4
5215	-1.205	0.0	2.4
5216	-1.205	0.0	2.4
5217	-1.205	0.0	2.4
5218	-1.205	0.0	2.4
5219	-1.205	0.0	2.4
5220	-1.205	0.0	2.4
5221	-1.205	0.0	2.4
5222	-1.205	0.0	2.25
5223	-1.205	0.0	2.25
5224	-1.205	0.0	2.25
5225	-1.205	0.0	2.4
5226	-1.205	0.0	2.4
5227	-1.205	0.0	2.25
5228	-1.2	0.0	2.4
5229	-1.2	0.0	2.4
5230	-1.2	0.0	2.4
5231	-1.2	0.0	2.4
5232	-1.2	0.0	2.25
5233	-1.2	0.0	2.25
5234	-1.195	0.0	2.4
5235	-1.195	0.0	2.4
5236	-1.2	0.0	2.4
5237	-1.195	0.0	2.4
5238	-1.195	0.0	2.4
5239	-1.2	0.0	2.25
5240	-1.2	0.0	2.4
5241	-1.2	0.0	2.4
5242	-1.2	0.0	2.4
5243	-1.2	0.0	2.4
5244	-1.2	0.0	2.4
5245	-1.2	0.0	2.25
5246	-1.2	0.0	2.25
5247	-1.2	0.0	2.25
5248	-1.195	0.0	2.25
5249	-1.195	0.0	2.25
5250	-1.195	0.0	2.25
5251	-1.195	0.0	2.25
5252	-1.2	0.0	2.25
5253	-1.2	0.0	2.4
5254	-1.195	0.0	2.4
5255	-1.195	0.0	2.25
5256	-1.195	0.0	2.4
5257	-1.195	0.0	2.4
5258	-1.195	-0.0015	2.4
5259	-1.195	0.0	2.4
5260	-1.2	0.0	2.4
5261	-1.195	0.0	2.4
5262	-1.195	0.0	2.4
5263	-1.195	0.0	2.4
5264	-1.195	0.0	2.4
5265	-1.195	0.0	2.4
5266	-1.195	0.0	2.4
5267	-1.195	0.0	2.25
5268	-1.195	0.0	2.4
5269	-1.195	0.0	2.25
5270	-1.19	0.0	2.25
5271	-1.19	0.0	2.4
5272	-1.19	0.0	2.4
5273	-1.195	0.0	2.4
5274	-1.195	0.0	2.25
5275	-1.195	0.0	2.25
5276	-1.195	0.0	2.25
5277	-1.195	0.0	2.25
5278	-1.19	0.0	2.25
5279	-1.195	0.0	2.25
5280	-1.195	0.0	2.25
5281	-1.19	0.0	2.25
5282	-1.19	0.0	2.25
5283	-1.19	0.0	2.25
5284	-1.19	0.0	2.25
5285	-1.19	0.0	2.25
5286	-1.19	0.0	2.25
5287	-1.195	0.0	2.25
5288	-1.19	0.0	2.25
5289	-1.195	0.0	2.25
5290	-1.195	0.0	2.25
5291	-1.19	0.0	2.25
5292	-1.195	0.0	2.25
5293	-1.195	0.0	2.25
5294	-1.195	0.0	2.25
5295	-1.19	0.0	2.25
5296	-1.19	0.0	2.4
5297	-1.195	0.0	2.25
5298	-1.19	0.0	2.25
5299	-1.19	0.0	2.4
5300	-1.195	0.0	2.25
5301	-1.195	0.0	2.25
5302	-1.19	0.0	2.25
5303	-1.195	0.0	2.25
5304	-1.195	0.0	2.25
5305	-1.195	0.0	2.25
5306	-1.195	0.0	2.25
5307	-1.195	0.0	2.25
5308	-1.195	-0.0015	2.25
5309	-1.195	0.0	2.25
5310	-1.195	0.0	2.25
5311	-1.195	0.0	2.25
5312	-1.195	0.0	2.25
5313	-1.19	0.0	2.25
5314	-1.19	0.0	2.25
5315	-1.19	0.0	2.4
5316	-1.19	0.0	2.25
5317	-1.19	0.0	2.25
5318	-1.19	0.0	2.25
5319	-1.19	0.0	2.25
5320	-1.19	0.0	2.25
5321	-1.19	0.0	2.25
5322	-1.19	0.0	2.25
5323	-1.19	0.0	2.25
5324	-1.19	0.0	2.25
5325	-1.19	0.0	2.25
5326	-1.19	0.0	2.25
5327	-1.19	0.0	2.25
5328	-1.185	0.0	2.25
5329	-1.19	0.0	2.25
5330	-1.19	0.0	2.25
5331	-1.19	0.0	2.25
5332	-1.19	0.0	2.25
5333	-1.19	0.0	2.25
5334	-1.19	0.0	2.25
5335	-1.185	0.0	2.25
5336	-1.19	0.0	2.4
5337	-1.19	0.0	2.4
5338	-1.19	0.0	2.25
5339	-1.19	0.0	2.4
5340	-1.19	0.0	2.25
5341	-1.19	0.0	2.25
5342	-1.19	0.0	2.4
5343	-1.19	0.0	2.4
5344	-1.19	0.0	2.4
5345	-1.19	0.0	2.25
5346	-1.19	0.0	2.4
5347	-1.185	0.0	2.4
5348	-1.185	0.0	2.4
5349	-1.185	0.0	2.4
5350	-1.19	0.0	2.4
5351	-1.19	0.0	2.4
5352	-1.185	0.0	2.4
5353	-1.19	0.0	2.4
5354	-1.19	0.0	2.4
5355	-1.19	0.0	2.4
5356	-1.19	-0.0015	2.4
5357	-1.19	0.0	2.4
5358	-1.19	0.0	2.25
5359	-1.19	0.0	2.25
5360	-1.19	0.0	2.4
5361	-1.19	0.0	2.4
5362	-1.19	0.0	2.25
5363	-1.19	0.0	2.25
5364	-1.19	0.0	2.4
5365	-1.185	0.0	2.4
5366	-1.19	0.0	2.4
5367	-1.19	0.0	2.25
5368	-1.19	0.0	2.4
5369	-1.19	0.0	2.4
5370	-1.19	0.0	2.4
5371	-1.195	0.0	2.4
5372	-1.19	0.0	2.4
5373	-1.195	0.0	2.4
5374	-1.195	0.0	2.4
5375	-1.19	-0.0015	2.4
5376	-1.19	0.0	2.4
5377	-1.19	0.0	2.25
5378	-1.19	0.0	2.25
5379	-1.19	-0.0015	2.25
5380	-1.19	0.0	2.25
5381	-1.19	0.0	2.25
5382	-1.19	0.0	2.25
5383	-1.19	0.0	2.25
5384	-1.19	0.0	2.4
5385	-1.19	0.0	2.4
5386	-1.19	0.0	2.4
5387	-1.19	0.0	2.25
5388	-1.19	0.0	2.25
5389	-1.19	0.0	2.25
5390	-1.19	0.0	2.25
5391	-1.19	0.0	2.25
5392	-1.19	0.0	2.25
5393	-1.19	0.0	2.25
5394	-1.19	0.0	2.25
5395	-1.19	0.0	2.25
5396	-1.19	0.0	2.25
5397	-1.19	0.0	2.25
5398	-1.19	0.0	2.25
5399	-1.19	0.0	2.25
5400	-1.19	0.0	2.25
5401	-1.19	0.0	2.25
5402	-1.19	0.0	2.25
5403	-1.185	0.0	2.25
5404	-1.185	0.0	2.25
5405	-1.19	0.0	2.25
5406	-1.19	0.0	2.25
5407	-1.185	0.0	2.25
5408	-1.185	0.0	2.25
5409	-1.185	0.0	2.25
5410	-1.185	0.0	2.25
5411	-1.185	0.0	2.25
5412	-1.185	0.0	2.25
5413	-1.185	0.0	2.25
5414	-1.185	0.0	2.4
5415	-1.185	0.0	2.4
5416	-1.185	0.0	2.4
5417	-1.185	0.0	2.25
5418	-1.19	0.0	2.4
5419	-1.185	0.0	2.25
5420	-1.185	0.0	2.4
5421	-1.185	0.0	2.4
5422	-1.19	0.0	2.4
5423	-1.19	0.0	2.4
5424	-1.19	0.0	2.25
5425	-1.19	-0.0015	2.25
5426	-1.19	0.0	2.25
5427	-1.19	0.0	2.25
5428	-1.19	0.0	2.25
5429	-1.19	0.0	2.25
5430	-1.19	0.0	2.25
5431	-1.19	0.0	2.25
5432	-1.195	0.0	2.25
5433	-1.195	0.0	2.25
5434	-1.19	0.0	2.25
5435	-1.19	0.0	2.25
5436	-1.19	0.0	2.25
5437	-1.19	0.0	2.25
5438	-1.15	0.0	2.25
5439	-0.035	0.0	2.25
5440	-0.025	0.0	2.4
5441	-0.025	0.0	2.25
5442	-0.025	0.0	2.25
5443	-0.02	0.0	2.25
5444	-0.02	0.0	2.4
5445	-0.02	0.0	2.25
5446	-0.02	0.0	2.4
5447	-0.02	0.0	2.4
5448	-0.02	0.0	2.4
5449	-0.02	0.0	2.4
5450	-0.02	0.0	2.4
5451	-0.02	0.0	2.4
5452	-0.02	0.0	2.4
5453	-0.02	0.0	2.4
5454	-0.02	0.0	2.4
5455	-0.02	0.0	2.4
5456	-0.02	0.0	2.4
5457	-0.02	0.0	2.4
5458	-0.02	0.0	2.4
5459	-0.03	0.0	2.4
5460	-0.15	0.0	2.4
5461	-0.27	0.0	2.4
5462	-0.355	0.0	2.25
5463	-0.425	0.0	2.25
5464	-0.485	0.0	2.25
5465	-0.535	0.0	2.25
5466	-0.575	0.0	2.25
5467	-0.61	0.0	2.4
5468	-0.64	0.0	2.4
5469	-0.665	0.0	2.25
5470	-0.69	0.0	2.4
5471	-0.71	0.0	2.25
5472	-0.73	0.0	2.25
5473	-0.75	0.0	2.25
5474	-0.765	0.0	2.25
5475	-0.775	0.0	2.25
5476	-0.79	0.0	2.25
5477	-0.8	0.0	2.25
5478	-0.81	0.0	2.25
5479	-0.82	0.0	2.4
5480	-0.83	0.0	2.25
5481	-0.835	0.0	2.4
5482	-0.845	0.0	2.4
5483	-0.85	0.0	2.25
5484	-0.855	0.0	2.4
5485	-0.86	0.0	2.4
5486	-0.865	0.0	2.25
5487	-0.875	0.0	2.4
5488	-0.88	0.0	2.25
5489	-0.88	0.0	2.25
5490	-0.885	0.0	2.25
5491	-0.885	0.0	2.4
5492	-0.89	0.0	2.4
5493	-0.895	0.0	2.25
5494	-0.9	0.0	2.25
5495	-0.905	0.0	2.25
5496	-0.905	0.0	2.25
5497	-0.91	0.0	2.25
5498	-0.91	0.0	2.25
5499	-0.91	0.0	2.25
5500	-0.915	0.0	2.4
5501	-0.915	0.0	2.25
5502	-0.915	-0.0015	2.25
5503	-0.92	0.0	2.25
5504	-0.92	0.0	2.4
5505	-0.92	0.0	2.25
5506	-0.92	0.0	2.25
5507	-0.925	0.0	2.25
5508	-0.925	0.0	2.4
5509	-0.925	0.0	2.4
5510	-0.93	0.0	2.4
5511	-0.93	0.0	2.4
5512	-0.935	0.0	2.4
5513	-0.935	0.0	2.4
5514	-0.935	0.0	2.25
5515	-0.935	0.0	2.25
5516	-0.935	0.0	2.25
5517	-0.935	0.0	2.4
5518	-0.94	0.0	2.4
5519	-0.94	0.0	2.4
5520	-0.94	0.0	2.4
5521	-0.94	0.0	2.4
5522	-0.945	0.0	2.4
5523	-0.945	0.0	2.4
5524	-0.945	0.0	2.25
5525	-0.945	0.0	2.4
5526	-0.945	0.0	2.4
5527	-0.945	0.0	2.25
5528	-0.945	0.0	2.4
5529	-0.945	0.0	2.4
5530	-0.95	0.0	2.4
5531	-0.95	0.0	2.4
5532	-0.95	0.0	2.4
5533	-0.95	0.0	2.4
5534	-0.95	0.0	2.4
5535	-0.95	0.0	2.4
5536	-0.95	0.0	2.25
5537	-0.955	0.0	2.4
5538	-0.955	0.0	2.4
5539	-0.955	0.0	2.4
5540	-0.95	0.0	2.4
5541	-0.95	0.0	2.4
5542	-0.955	0.0	2.4
5543	-0.955	0.0	2.25
5544	-0.955	0.0	2.25
5545	-0.955	0.0	2.4
5546	-0.955	0.0	2.25
5547	-0.955	0.0	2.25
5548	-0.955	0.0	2.25
5549	-0.955	0.0	2.25
5550	-0.955	0.0	2.25
5551	-0.955	0.0	2.25
5552	-0.955	0.0	2.25
5553	-0.955	0.0	2.4
5554	-0.96	0.0	2.4
5555	-0.96	0.0	2.25
5556	-0.96	0.0	2.25
5557	-0.96	0.0	2.25
5558	-0.96	0.0	2.25
5559	-0.96	0.0	2.25
5560	-0.96	0.0	2.25
5561	-0.96	0.0	2.25
5562	-0.96	0.0	2.25
5563	-0.96	0.0	2.25
5564	-0.96	0.0	2.25
5565	-0.955	-0.0015	2.25
5566	-0.95	0.0	2.25
5567	-0.94	0.0	2.25
5568	-0.945	-0.0015	2.25
5569	-0.945	0.0	2.25
5570	-0.95	0.0	2.25
5571	-0.955	0.0	2.25
5572	-0.955	0.0	2.25
5573	-0.955	0.0	2.25
5574	-0.96	0.0	2.25
5575	-0.96	0.0	2.25
5576	-0.96	0.0	2.25
5577	-0.96	0.0	2.4
5578	-0.96	0.0	2.4
5579	-0.96	0.0	2.4
5580	-0.96	0.0	2.25
5581	-0.965	0.0	2.25
5582	-0.965	0.0	2.25
5583	-0.965	0.0	2.25
5584	-0.965	0.0	2.25
5585	-0.96	0.0	2.25
5586	-0.965	0.0	2.25
5587	-0.96	0.0	2.4
5588	-0.965	0.0	2.25
5589	-0.965	0.0	2.25
5590	-0.965	0.0	2.25
5591	-0.965	0.0	2.4
5592	-0.965	0.0	2.4
5593	-0.965	0.0	2.4
5594	-0.965	0.0	2.4
5595	-0.965	0.0	2.4
5596	-0.97	0.0	2.4
5597	-0.97	0.0	2.4
5598	-0.97	0.0	2.4
5599	-0.97	0.0	2.4
5600	-0.97	0.0	2.25
5601	-0.97	0.0	2.4
5602	-0.965	0.0	2.4
5603	-0.965	0.0	2.4
5604	-0.97	0.0	2.4
5605	-0.97	0.0	2.4
5606	-0.97	0.0	2.4
5607	-0.97	0.0	2.4
5608	-0.97	0.0	2.4
5609	-0.97	0.0	2.4
5610	-0.97	0.0	2.4
5611	-0.97	0.0	2.4
5612	-0.97	0.0	2.4
5613	-0.97	0.0	2.4
5614	-0.97	0.0	2.4
5615	-0.975	0.0	2.4
5616	-0.975	0.0	2.4
5617	-0.97	0.0	2.4
5618	-0.975	0.0	2.4
5619	-0.975	0.0	2.4
5620	-0.975	0.0	2.4
5621	-0.975	0.0	2.4
5622	-0.98	0.0	2.4
5623	-0.98	0.0	2.4
5624	-0.98	0.0	2.4
5625	-0.98	0.0	2.4
5626	-0.98	0.0	2.4
5627	-0.98	0.0	2.4
5628	-0.98	0.0	2.4
5629	-0.975	0.0	2.4
5630	-0.975	0.0	2.4
5631	-0.975	0.0	2.4
5632	-0.975	0.0	2.4
5633	-0.975	0.0	2.4
5634	-0.975	0.0	2.4
5635	-0.975	0.0	2.4
5636	-0.975	0.0	2.4
5637	-0.975	0.0	2.4
5638	-0.975	0.0	2.4
5639	-0.975	0.0	2.4
5640	-0.975	0.0	2.25
5641	-0.975	0.0	2.4
5642	-0.975	0.0	2.4
5643	-0.975	0.0	2.4
5644	-0.975	0.0	2.4
5645	-0.975	0.0	2.4
5646	-0.975	0.0	2.4
5647	-0.975	0.0	2.4
5648	-0.975	0.0	2.25
5649	-0.975	0.0	2.4
5650	-0.975	0.0	2.4
5651	-0.975	0.0	2.4
5652	-0.975	0.0	2.4
5653	-0.975	0.0	2.4
5654	-0.975	0.0	2.4
5655	-0.975	0.0	2.4
5656	-0.975	0.0	2.25
5657	-0.98	0.0	2.4
5658	-0.98	0.0	2.4
5659	-0.975	0.0	2.4
5660	-0.975	0.0	2.4
5661	-0.975	0.0	2.4
5662	-0.975	0.0	2.4
5663	-0.975	0.0	2.4
5664	-0.975	0.0	2.4
5665	-0.98	0.0	2.25
5666	-0.98	0.0	2.4
5667	-0.98	0.0	2.25
5668	-0.98	0.0	2.4
5669	-0.98	0.0	2.4
5670	-0.975	0.0	2.4
5671	-0.98	0.0	2.4
5672	-0.98	0.0	2.4
5673	-0.98	0.0	2.25
5674	-0.98	0.0	2.25
5675	-0.98	0.0	2.4
5676	-0.98	0.0	2.25
5677	-0.98	0.0	2.25
5678	-0.98	0.0	2.25
5679	-0.98	0.0	2.4
5680	-0.98	0.0	2.4
5681	-0.98	0.0	2.4
5682	-0.98	0.0	2.25
5683	-0.98	0.0	2.4
5684	-0.985	0.0	2.25
5685	-0.985	0.0	2.4
5686	-0.98	0.0	2.4
5687	-0.98	0.0	2.4
5688	-0.985	0.0	2.4
5689	-0.985	0.0	2.4
5690	-0.985	0.0	2.4
5691	-0.985	0.0	2.4
5692	-0.985	0.0	2.4
5693	-0.985	0.0	2.4
5694	-0.985	0.0	2.4
5695	-0.985	0.0	2.4
5696	-0.985	0.0	2.4
5697	-0.985	0.0	2.25
5698	-0.985	0.0	2.4
5699	-0.985	0.0	2.25
5700	-0.985	0.0	2.25
5701	-0.985	0.0	2.25
5702	-0.99	0.0	2.4
5703	-0.99	0.0	2.25
5704	-0.99	0.0	2.4
5705	-0.99	0.0	2.4
5706	-0.99	0.0	2.4
5707	-0.99	0.0	2.4
5708	-0.99	0.0	2.25
5709	-0.99	0.0	2.25
5710	-0.99	0.0	2.4
5711	-0.985	0.0	2.4
5712	-0.985	0.0	2.4
5713	-0.985	0.0	2.4
5714	-0.985	0.0	2.4
5715	-0.985	0.0	2.4
5716	-0.985	0.0	2.4
5717	-0.985	0.0	2.4
5718	-0.985	0.0	2.25
5719	-0.985	0.0	2.25
5720	-0.98	0.0	2.25
5721	-0.98	0.0	2.4
5722	-0.2	0.9405	101.55
5723	2.36	1.6425	165.0
5724	1.985	1.6425	165.0
5725	1.81	1.6425	165.0
5726	1.66	1.644	165.0
5727	1.535	1.644	165.0
5728	1.44	1.6425	165.0
5729	1.345	1.6425	165.0
5730	1.27	1.641	165.0
5731	1.2	1.6425	165.0
5732	1.14	1.641	165.0
5733	1.085	1.6425	164.85
5734	1.035	1.641	164.85
5735	0.99	1.6425	164.85
5736	0.95	1.641	164.85
5737	0.915	1.6395	164.85
5738	0.875	1.641	164.85
5739	0.845	1.6395	164.85
5740	0.815	1.641	164.85
5741	0.785	1.638	164.85
