#MIN=0	-300	-10	0	
#MAX=226,27417	300	10	5	
#SCALE=100	100	5	1	
#DEC=1	1	2	3	
#DEF="Zeit" t / s	"Spannung" U_A1 / mV	"Spannung" U_B1 / V ( = µA)
0	-91.95	-0.14		
0.101	-91.95	-0.135		
0.2	-91.95	-0.14		
0.301	-91.8	-0.14		
0.4	-91.95	-0.14		
0.5	-91.8	-0.14		
0.6	-91.95	-0.135		
0.7	-91.8	-0.145		
0.8	-91.8	-0.135		
0.9	-91.65	-0.135		
1	-91.8	-0.14		
1.1	-91.65	-0.14		
1.2	-91.65	-0.14		
1.3	-91.8	-0.14		
1.4	-91.5	-0.145		
1.5	-91.65	-0.14		
1.6	-91.65	-0.14		
1.7	-91.5	-0.135		
1.8	-91.65	-0.14		
1.9	-91.5	-0.135		
2	-91.5	-0.135		
2.1	-91.5	-0.14		
2.2	-91.35	-0.14		
2.3	-91.5	-0.135		
2.4	-91.5	-0.14		
2.5	-91.5	-0.145		
2.6	-91.5	-0.14		
2.7	-91.35	-0.14		
2.8	-91.35	-0.145		
2.9	-91.35	-0.145		
3	-91.35	-0.135		
3.1	-91.35	-0.14		
3.2	-91.35	-0.14		
3.3	-91.35	-0.14		
3.4	-91.35	-0.14		
3.5	-91.2	-0.14		
3.6	-91.2	-0.14		
3.7	-91.35	-0.14		
3.8	-91.2	-0.14		
3.9	-91.35	-0.14		
4	-91.2	-0.135		
4.1	-91.05	-0.14		
4.2	-91.05	-0.14		
4.3	-91.2	-0.13		
4.4	-91.05	-0.14		
4.5	-91.05	-0.135		
4.6	-90.9	-0.135		
4.7	-91.05	-0.145		
4.8	-91.05	-0.135		
4.9	-91.05	-0.135		
5	-90.9	-0.14		
5.1	-90.9	-0.14		
5.2	-90.9	-0.145		
5.3	-90.9	-0.14		
5.4	-91.05	-0.145		
5.5	-90.9	-0.14		
5.6	-90.75	-0.14		
5.7	-90.9	-0.14		
5.8	-90.9	-0.14		
5.9	-90.75	-0.14		
6	-90.75	-0.135		
6.1	-90.75	-0.13		
6.2	-90.75	-0.135		
6.3	-90.75	-0.135		
6.4	-90.6	-0.135		
6.5	-90.75	-0.135		
6.6	-90.6	-0.14		
6.7	-90.6	-0.135		
6.8	-90.6	-0.13		
6.9	-90.6	-0.135		
7	-90.6	-0.13		
7.1	-90.6	-0.14		
7.2	-90.6	-0.135		
7.3	-90.6	-0.135		
7.4	-90.6	-0.135		
7.5	-90.6	-0.14		
7.6	-90.45	-0.135		
7.7	-90.45	-0.13		
7.8	-90.45	-0.135		
7.9	-90.45	-0.14		
8	-90.45	-0.14		
8.1	-90.45	-0.14		
8.2	-90.3	-0.14		
8.3	-90.45	-0.135		
8.4	-90.45	-0.135		
8.5	-90.3	-0.135		
8.6	-90.3	-0.14		
8.7	-90.3	-0.145		
8.8	-90.3	-0.145		
8.9	-90.3	-0.135		
9	-90.3	-0.14		
9.1	-90.3	-0.135		
9.2	-90.3	-0.14		
9.3	-90.3	-0.135		
9.4	-90.15	-0.14		
9.5	-90.15	-0.14		
9.6	-90.15	-0.14		
9.7	-90.15	-0.14		
9.8	-90.15	-0.14		
9.9	-90.15	-0.13		
10	-90.15	-0.13		
10.1	-90.15	-0.115		
10.2	-90.15	-0.105		
10.3	-90.15	-0.095		
10.4	-90.15	-0.085		
10.5	-90	-0.075		
10.6	-90.15	-0.075		
10.7	-90	-0.065		
10.8	-90.15	-0.055		
10.9	-90	-0.045		
11	-90	-0.04		
11.1	-90	-0.02		
11.2	-90.15	-0.015		
11.3	-90	-0.015		
11.4	-90	0.005		
11.5	-90	0		
11.6	-90.15	0.005		
11.7	-90	0.005		
11.8	-90.15	0.015		
11.9	-90.15	0.035		
12	-90	0.045		
12.1	-90	0.045		
12.2	-90	0.05		
12.3	-90	0.055		
12.4	-90	0.065		
12.5	-90	0.06		
12.6	-90	0.065		
12.7	-90	0.07		
12.8	-90.15	0.07		
12.9	-90	0.08		
13	-90	0.085		
13.1	-90	0.09		
13.2	-89.85	0.09		
13.3	-90	0.105		
13.4	-90	0.105		
13.5	-90	0.11		
13.6	-90	0.11		
13.7	-90	0.13		
13.8	-90	0.135		
13.9	-90	0.14		
14	-90	0.16		
14.1	-90	0.16		
14.2	-90	0.16		
14.3	-90	0.16		
14.4	-89.85	0.17		
14.5	-89.85	0.17		
14.6	-90	0.175		
14.7	-90.15	0.18		
14.8	-90.15	0.195		
14.9	-90.15	0.19		
15	-90.15	0.19		
15.1	-90	0.195		
15.2	-90	0.2		
15.3	-90	0.2		
15.4	-90.15	0.21		
15.5	-90.15	0.21		
15.6	-90	0.215		
15.7	-90	0.22		
15.8	-90.15	0.235		
15.9	-90	0.235		
16	-90.15	0.24		
16.1	-90	0.25		
16.2	-90.15	0.26		
16.3	-90.15	0.275		
16.4	-90.15	0.28		
16.5	-90.15	0.28		
16.6	-90.15	0.29		
16.7	-90.15	0.29		
16.8	-90.15	0.3		
16.9	-90.15	0.305		
17	-90.15	0.305		
17.1	-90.15	0.31		
17.2	-90.15	0.315		
17.3	-90.15	0.325		
17.4	-90.3	0.335		
17.5	-90.15	0.335		
17.6	-90.3	0.345		
17.7	-90.3	0.34		
17.8	-90.3	0.345		
17.9	-90.3	0.345		
18	-90.3	0.355		
18.1	-90.3	0.36		
18.2	-90.3	0.36		
18.3	-90.15	0.36		
18.4	-90.3	0.37		
18.5	-90.45	0.37		
18.6	-90.3	0.375		
18.7	-90.45	0.38		
18.8	-90.3	0.375		
18.9	-90.3	0.38		
19	-90.3	0.39		
19.1	-90.45	0.4		
19.2	-90.45	0.4		
19.3	-90.3	0.4		
19.4	-90.45	0.405		
19.5	-90.45	0.405		
19.6	-90.6	0.41		
19.7	-90.6	0.41		
19.8	-90.45	0.41		
19.9	-90.45	0.415		
20	-90.6	0.425		
20.1	-90.6	0.43		
20.2	-90.45	0.435		
20.3	-90.6	0.435		
20.4	-90.6	0.435		
20.5	-90.6	0.44		
20.6	-90.6	0.45		
20.7	-90.75	0.445		
20.8	-90.6	0.45		
20.9	-90.6	0.455		
21	-90.6	0.465		
21.1	-90.75	0.465		
21.2	-90.6	0.47		
21.3	-90.75	0.465		
21.4	-90.75	0.465		
21.5	-90.75	0.465		
21.6	-90.75	0.465		
21.7	-90.75	0.47		
21.8	-90.75	0.47		
21.9	-90.75	0.475		
22	-90.75	0.475		
22.1	-90.9	0.475		
22.2	-90.9	0.48		
22.3	-90.9	0.48		
22.4	-90.9	0.49		
22.5	-90.9	0.495		
22.6	-90.75	0.495		
22.7	-90.9	0.5		
22.8	-90.75	0.505		
22.9	-91.05	0.515		
23	-90.9	0.52		
23.1	-91.05	0.525		
23.2	-90.9	0.53		
23.3	-91.05	0.535		
23.4	-90.9	0.53		
23.5	-91.05	0.535		
23.6	-91.05	0.535		
23.7	-91.05	0.545		
23.8	-91.05	0.545		
23.9	-91.2	0.55		
24	-91.05	0.555		
24.1	-91.05	0.55		
24.2	-91.05	0.555		
24.3	-91.05	0.555		
24.4	-91.2	0.565		
24.5	-91.2	0.565		
24.6	-91.35	0.565		
24.7	-91.35	0.57		
24.8	-91.2	0.57		
24.9	-91.35	0.575		
25	-91.2	0.57		
25.1	-91.35	0.58		
25.2	-91.35	0.585		
25.3	-91.35	0.585		
25.4	-91.35	0.595		
25.5	-91.35	0.595		
25.6	-91.5	0.595		
25.7	-91.5	0.605		
25.8	-91.35	0.61		
25.9	-91.35	0.605		
26	-91.65	0.605		
26.1	-91.5	0.605		
26.2	-91.5	0.61		
26.3	-91.5	0.61		
26.4	-91.65	0.61		
26.5	-91.5	0.62		
26.6	-91.65	0.62		
26.7	-91.5	0.625		
26.8	-91.65	0.625		
26.9	-91.5	0.625		
27	-91.65	0.63		
27.1	-91.65	0.635		
27.2	-91.8	0.64		
27.3	-91.5	0.655		
27.4	-91.8	0.665		
27.5	-91.8	0.665		
27.6	-91.8	0.665		
27.7	-91.65	0.665		
27.8	-91.95	0.66		
27.9	-91.8	0.665		
28	-91.8	0.67		
28.1	-91.8	0.67		
28.2	-91.95	0.68		
28.3	-91.95	0.68		
28.4	-91.95	0.68		
28.5	-91.95	0.68		
28.6	-91.95	0.69		
28.7	-91.95	0.695		
28.8	-91.95	0.7		
28.9	-91.95	0.7		
29	-91.95	0.705		
29.1	-92.1	0.71		
29.2	-92.1	0.72		
29.3	-92.1	0.72		
29.4	-92.25	0.725		
29.5	-92.1	0.73		
29.6	-92.1	0.735		
29.7	-92.25	0.74		
29.8	-92.25	0.75		
29.9	-92.25	0.755		
30	-92.1	0.76		
30.1	-92.4	0.765		
30.2	-92.4	0.77		
30.3	-92.4	0.765		
30.4	-92.4	0.775		
30.5	-92.4	0.775		
30.6	-92.55	0.78		
30.7	-92.55	0.785		
30.8	-92.55	0.79		
30.9	-92.55	0.795		
31	-92.55	0.8		
31.1	-92.55	0.805		
31.2	-92.55	0.805		
31.3	-92.55	0.805		
31.4	-92.55	0.81		
31.5	-92.7	0.815		
31.6	-92.55	0.81		
31.7	-92.7	0.815		
31.8	-92.7	0.815		
31.9	-92.7	0.825		
32	-92.7	0.835		
32.1	-92.7	0.84		
32.2	-92.85	0.84		
32.3	-92.85	0.835		
32.4	-92.85	0.835		
32.5	-92.85	0.84		
32.6	-92.85	0.84		
32.7	-92.85	0.85		
32.8	-93	0.86		
32.9	-93	0.865		
33	-93	0.88		
33.1	-93.15	0.895		
33.2	-93	0.9		
33.3	-93.15	0.915		
33.4	-93.15	0.925		
33.5	-93.15	0.93		
33.6	-93.15	0.945		
33.7	-93.15	0.96		
33.8	-93.15	0.975		
33.9	-93.3	0.98		
34	-93.3	0.985		
34.1	-93.3	1		
34.2	-93.3	0.995		
34.3	-93.3	1.015		
34.4	-93.45	1.025		
34.5	-93.45	1.035		
34.6	-93.45	1.05		
34.7	-93.6	1.06		
34.8	-93.6	1.075		
34.9	-93.45	1.085		
35	-93.75	1.105		
35.1	-93.75	1.12		
35.2	-93.75	1.12		
35.3	-93.9	1.13		
35.4	-93.9	1.14		
35.5	-93.9	1.155		
35.6	-93.9	1.165		
35.7	-93.9	1.18		
35.8	-94.05	1.19		
35.9	-94.05	1.2		
36	-94.05	1.205		
36.1	-94.2	1.21		
36.2	-94.2	1.215		
36.3	-94.2	1.225		
36.4	-94.2	1.225		
36.5	-94.35	1.235		
36.6	-94.35	1.23		
36.7	-94.35	1.24		
36.8	-94.5	1.24		
36.9	-94.35	1.25		
37	-94.5	1.255		
37.1	-94.65	1.255		
37.2	-94.65	1.26		
37.3	-94.5	1.255		
37.4	-94.65	1.27		
37.5	-94.65	1.27		
37.6	-94.8	1.27		
37.7	-94.8	1.275		
37.8	-94.95	1.285		
37.9	-94.8	1.285		
38	-94.95	1.295		
38.1	-94.95	1.295		
38.2	-94.95	1.295		
38.3	-95.1	1.325		
38.4	-95.1	1.32		
38.5	-95.1	1.325		
38.6	-95.25	1.34		
38.7	-95.25	1.345		
38.8	-95.25	1.36		
38.9	-95.4	1.39		
39	-95.4	1.4		
39.1	-95.4	1.415		
39.2	-95.55	1.42		
39.3	-95.55	1.42		
39.4	-95.55	1.43		
39.5	-95.7	1.445		
39.6	-95.7	1.45		
39.7	-95.7	1.445		
39.8	-95.7	1.45		
39.9	-95.85	1.455		
40	-95.85	1.46		
40.1	-95.85	1.475		
40.2	-96	1.475		
40.3	-96	1.475		
40.4	-96	1.49		
40.5	-96	1.495		
40.6	-96	1.505		
40.7	-96.15	1.52		
40.8	-96.15	1.525		
40.9	-96.3	1.535		
41	-96.3	1.535		
41.1	-96.45	1.54		
41.2	-96.45	1.55		
41.3	-96.3	1.555		
41.4	-96.6	1.555		
41.5	-96.6	1.565		
41.6	-96.6	1.57		
41.7	-96.6	1.58		
41.8	-96.6	1.59		
41.9	-96.75	1.59		
42	-96.75	1.6		
42.1	-96.9	1.605		
42.2	-96.9	1.61		
42.3	-96.9	1.615		
42.4	-97.05	1.61		
42.5	-97.05	1.62		
42.6	-97.2	1.63		
42.7	-97.2	1.645		
42.8	-97.2	1.655		
42.9	-97.2	1.66		
43	-97.35	1.665		
43.1	-97.35	1.67		
43.2	-97.5	1.68		
43.3	-97.5	1.69		
43.4	-97.5	1.695		
43.5	-97.5	1.695		
43.6	-97.65	1.7		
43.7	-97.65	1.71		
43.8	-97.8	1.72		
43.9	-97.8	1.725		
44	-97.95	1.735		
44.1	-97.95	1.745		
44.2	-97.95	1.765		
44.3	-97.95	1.775		
44.4	-98.1	1.79		
44.5	-98.1	1.8		
44.6	-98.25	1.8		
44.7	-98.25	1.81		
44.8	-98.4	1.815		
44.9	-98.4	1.845		
45	-98.4	1.835		
45.1	-98.55	1.845		
45.2	-98.55	1.85		
45.3	-98.7	1.865		
45.4	-98.7	1.88		
45.5	-98.7	1.875		
45.6	-98.85	1.88		
45.7	-98.85	1.88		
45.8	-98.85	1.88		
45.9	-99	1.885		
46	-99.15	1.885		
46.1	-99.15	1.895		
46.2	-99.15	1.895		
46.3	-99.15	1.915		
46.4	-99.3	1.935		
46.5	-99.3	1.955		
46.6	-99.45	1.975		
46.7	-99.45	2		
46.8	-99.45	2.01		
46.9	-99.6	2.02		
47	-99.75	2.03		
47.1	-99.75	2.035		
47.2	-99.75	2.055		
47.3	-99.9	2.065		
47.4	-99.9	2.08		
47.5	-100.05	2.085		
47.6	-100.05	2.11		
47.7	-100.05	2.11		
47.8	-100.35	2.12		
47.9	-100.35	2.125		
48	-100.2	2.12		
48.1	-100.5	2.125		
48.2	-100.5	2.145		
48.3	-100.65	2.17		
48.4	-100.65	2.185		
48.5	-100.65	2.2		
48.6	-100.8	2.22		
48.7	-100.95	2.235		
48.8	-100.95	2.25		
48.9	-101.1	2.265		
49	-101.1	2.265		
49.1	-101.25	2.275		
49.2	-101.25	2.29		
49.3	-101.25	2.285		
49.4	-101.4	2.305		
49.5	-101.55	2.305		
49.6	-101.4	2.305		
49.7	-101.55	2.305		
49.8	-101.7	2.3		
49.9	-101.7	2.3		
50	-101.85	2.305		
50.1	-101.85	2.3		
50.2	-102	2.3		
50.3	-102.15	2.305		
50.4	-102	2.305		
50.5	-102.15	2.3		
50.6	-102.3	2.305		
50.7	-102.3	2.305		
50.8	-102.3	2.305		
50.9	-102.45	2.305		
51	-102.45	2.3		
51.1	-102.6	2.3		
51.2	-102.75	2.305		
51.3	-102.75	2.305		
51.4	-102.75	2.3		
51.5	-102.75	2.305		
51.6	-102.9	2.3		
51.7	-102.9	2.305		
51.8	-103.05	2.31		
51.9	-103.05	2.3		
52	-103.2	2.305		
52.1	-103.2	2.3		
52.2	-103.35	2.3		
52.3	-103.35	2.3		
52.4	-103.35	2.295		
52.5	-103.5	2.305		
52.6	-103.5	2.3		
52.7	-103.5	2.3		
52.8	-103.65	2.3		
52.9	-103.65	2.305		
53	-103.8	2.3		
53.1	-103.95	2.3		
53.2	-103.95	2.3		
53.3	-103.95	2.295		
53.4	-104.1	2.3		
53.5	-103.95	2.3		
53.6	-104.1	2.3		
53.7	-104.25	2.3		
53.8	-104.25	2.295		
53.9	-104.25	2.295		
54	-104.25	2.3		
54.1	-104.4	2.295		
54.2	-104.55	2.295		
54.3	-104.55	2.3		
54.4	-104.55	2.295		
54.5	-104.7	2.3		
54.6	-104.7	2.295		
54.7	-104.85	2.3		
54.8	-104.7	2.295		
54.9	-104.85	2.295		
55	-104.85	2.305		
55.1	-105	2.3		
55.2	-105.15	2.3		
55.3	-104.85	2.295		
55.4	-105.15	2.3		
55.5	-105.15	2.295		
55.6	-105.3	2.3		
55.7	-105.3	2.3		
55.8	-105.45	2.295		
55.9	-105.3	2.3		
56	-105.45	2.295		
56.1	-105.45	2.295		
56.2	-105.6	2.3		
56.3	-105.6	2.295		
56.4	-105.6	2.295		
56.5	-105.6	2.3		
56.6	-105.75	2.295		
56.7	-105.75	2.3		
56.8	-105.9	2.3		
56.9	-105.75	2.3		
57	-105.9	2.295		
57.1	-106.05	2.3		
57.2	-106.05	2.3		
57.3	-106.05	2.3		
57.4	-106.2	2.3		
57.5	-106.2	2.295		
57.6	-106.05	2.295		
57.7	-106.35	2.3		
57.8	-106.5	2.295		
57.9	-106.35	2.295		
58	-106.5	2.295		
58.1	-106.35	2.295		
58.2	-106.5	2.295		
58.3	-106.65	2.295		
58.4	-106.65	2.295		
58.5	-106.8	2.295		
58.6	-106.8	2.305		
58.7	-106.8	2.295		
58.8	-106.95	2.295		
58.9	-106.95	2.295		
59	-106.95	2.295		
59.1	-107.1	2.3		
59.2	-107.1	2.295		
59.3	-107.1	2.295		
59.4	-107.25	2.295		
59.5	-107.25	2.305		
59.6	-107.25	2.3		
59.7	-107.25	2.295		
59.8	-107.25	2.295		
59.9	-107.25	2.295		
60	-107.4	2.3		
60.1	-107.4	2.295		
60.2	-107.4	2.295		
60.3	-107.55	2.3		
60.4	-107.55	2.295		
60.5	-107.7	2.295		
60.6	-107.7	2.295		
60.7	-107.55	2.295		
60.8	-107.7	2.295		
60.9	-107.7	2.295		
61	-108	2.29		
61.1	-107.85	2.3		
61.2	-108.15	2.295		
61.3	-108	2.295		
61.4	-108	2.295		
61.5	-108.15	2.295		
61.6	-108.15	2.295		
61.7	-108.15	2.295		
61.8	-108.15	2.295		
61.9	-108.3	2.295		
62	-108.45	2.295		
62.1	-108.3	2.3		
62.2	-108.3	2.295		
62.3	-108.3	2.295		
62.4	-108.6	2.295		
62.5	-108.6	2.3		
62.6	-108.45	2.295		
62.7	-108.75	2.295		
62.8	-108.6	2.295		
62.9	-108.6	2.295		
63	-108.6	2.295		
63.1	-108.75	2.295		
63.2	-108.75	2.295		
63.3	-108.75	2.295		
63.4	-108.9	2.3		
63.5	-108.9	2.295		
63.6	-108.9	2.295		
63.7	-109.05	2.295		
63.8	-108.9	2.295		
63.9	-109.05	2.295		
64	-109.2	2.295		
64.1	-109.2	2.295		
64.2	-109.2	2.295		
64.3	-109.2	2.295		
64.4	-109.2	2.295		
64.5	-109.35	2.295		
64.6	-109.35	2.3		
64.7	-109.35	2.295		
64.8	-109.5	2.295		
64.9	-109.5	2.295		
65	-109.5	2.295		
65.1	-109.65	2.29		
65.2	-109.65	2.3		
65.3	-109.65	2.3		
65.4	-109.8	2.295		
65.5	-109.65	2.295		
65.6	-109.8	2.29		
65.7	-109.8	2.295		
65.8	-109.8	2.29		
65.9	-109.95	2.295		
66	-109.8	2.295		
66.1	-109.95	2.295		
66.2	-109.95	2.295		
66.3	-109.95	2.295		
66.4	-110.1	2.295		
66.5	-109.95	2.295		
66.6	-110.25	2.295		
66.7	-110.1	2.295		
66.8	-110.25	2.295		
66.9	-110.1	2.295		
67	-110.25	2.29		
67.1	-110.25	2.295		
67.2	-110.25	2.295		
67.3	-110.4	2.295		
67.4	-110.4	2.295		
67.5	-110.4	2.29		
67.6	-110.4	2.3		
67.7	-110.55	2.295		
67.8	-110.55	2.295		
67.9	-110.55	2.295		
68	-110.55	2.29		
68.1	-110.7	2.29		
68.2	-110.7	2.29		
68.3	-110.85	2.295		
68.4	-110.7	2.29		
68.5	-110.85	2.295		
68.6	-110.85	2.295		
68.7	-110.7	2.29		
68.8	-110.85	2.295		
68.9	-110.85	2.29		
69	-111	2.29		
69.1	-111	2.29		
69.2	-111.15	2.295		
69.3	-111	2.29		
69.4	-111	2.29		
69.5	-111.15	2.29		
69.6	-111.15	2.29		
69.7	-111.15	2.29		
69.8	-111.15	2.295		
69.9	-111.3	2.295		
70	-111.3	2.29		
70.1	-111.3	2.29		
70.2	-111.3	2.295		
70.3	-111.3	2.29		
70.4	-111.45	2.295		
70.5	-111.45	2.29		
70.6	-111.6	2.295		
70.7	-111.6	2.295		
70.8	-111.6	2.29		
70.9	-111.6	2.295		
71	-111.75	2.295		
71.1	-111.75	2.3		
71.2	-111.75	2.29		
71.3	-111.75	2.295		
71.4	-111.75	2.295		
71.5	-111.9	2.295		
71.6	-111.9	2.295		
71.7	-111.9	2.295		
71.8	-111.9	2.295		
71.9	-111.9	2.29		
72	-112.05	2.29		
72.1	-112.05	2.295		
72.2	-112.05	2.29		
72.3	-112.05	2.29		
72.4	-112.05	2.295		
72.5	-112.2	2.295		
72.6	-112.2	2.29		
72.7	-112.2	2.295		
72.8	-112.2	2.295		
72.9	-112.2	2.29		
73	-112.2	2.29		
73.1	-112.2	2.29		
73.2	-112.35	2.295		
73.3	-112.35	2.29		
73.4	-112.5	2.29		
73.5	-112.35	2.295		
73.6	-112.5	2.29		
73.7	-112.5	2.295		
73.8	-112.5	2.29		
73.9	-112.65	2.29		
74	-112.65	2.29		
74.1	-112.65	2.29		
74.2	-112.65	2.29		
74.3	-112.65	2.29		
74.4	-112.8	2.295		
74.5	-112.8	2.295		
74.6	-112.8	2.29		
74.7	-112.95	2.295		
74.8	-112.8	2.295		
74.9	-112.95	2.285		
75	-112.95	2.29		
75.1	-112.95	2.29		
75.2	-112.95	2.29		
75.3	-112.95	2.295		
75.4	-113.1	2.29		
75.5	-113.1	2.29		
75.6	-113.1	2.295		
75.7	-113.1	2.29		
75.8	-113.1	2.29		
75.9	-113.1	2.29		
76	-113.1	2.29		
76.1	-113.25	2.29		
76.2	-113.25	2.295		
76.3	-113.25	2.295		
76.4	-113.25	2.3		
76.5	-113.4	2.29		
76.6	-113.4	2.295		
76.7	-113.55	2.29		
76.8	-113.55	2.29		
76.9	-113.55	2.29		
77	-113.55	2.29		
77.1	-113.55	2.29		
77.2	-113.55	2.285		
77.3	-113.55	2.295		
77.4	-113.55	2.29		
77.5	-113.7	2.29		
77.6	-113.55	2.29		
77.7	-113.7	2.29		
77.8	-113.7	2.295		
77.9	-113.7	2.295		
78	-113.85	2.29		
78.1	-113.85	2.29		
78.2	-113.85	2.295		
78.3	-113.7	2.295		
78.4	-113.85	2.29		
78.5	-113.85	2.29		
78.6	-113.85	2.29		
78.7	-114	2.29		
78.8	-114	2.285		
78.9	-114	2.29		
79	-114.15	2.285		
79.1	-114.15	2.29		
79.2	-114.15	2.285		
79.3	-114.15	2.285		
79.4	-114.15	2.29		
79.5	-114	2.295		
79.6	-114.15	2.285		
79.7	-114.3	2.285		
79.8	-114.3	2.295		
79.9	-114.3	2.29		
80	-114.3	2.29		
80.1	-114.3	2.29		
80.2	-114.45	2.295		
80.3	-114.45	2.29		
80.4	-114.45	2.29		
80.5	-114.45	2.29		
80.6	-114.45	2.295		
80.7	-114.45	2.285		
80.8	-114.6	2.29		
80.9	-114.75	2.29		
81	-114.6	2.29		
81.1	-114.6	2.29		
81.2	-114.6	2.285		
81.3	-114.6	2.285		
81.4	-114.6	2.295		
81.5	-114.75	2.29		
81.6	-114.75	2.295		
81.7	-114.75	2.295		
81.8	-114.75	2.29		
81.9	-114.75	2.29		
82	-114.75	2.285		
82.1	-114.75	2.29		
82.2	-114.9	2.29		
82.3	-114.9	2.29		
82.4	-114.9	2.285		
82.5	-115.05	2.295		
82.6	-115.05	2.29		
82.7	-115.05	2.29		
82.8	-114.9	2.29		
82.9	-115.05	2.29		
83	-115.05	2.29		
83.1	-115.05	2.29		
83.2	-115.05	2.29		
83.3	-115.05	2.285		
83.4	-115.05	2.29		
83.5	-115.05	2.29		
83.6	-115.2	2.285		
83.7	-115.05	2.29		
83.8	-115.05	2.29		
83.9	-115.2	2.29		
84	-115.2	2.295		
84.1	-115.35	2.29		
84.2	-115.2	2.29		
84.3	-115.2	2.29		
84.4	-115.35	2.29		
84.5	-115.35	2.285		
84.6	-115.35	2.285		
84.7	-115.35	2.285		
84.8	-115.35	2.285		
84.9	-115.35	2.285		
85	-115.35	2.29		
85.1	-115.5	2.285		
85.2	-115.35	2.285		
85.3	-115.5	2.28		
85.4	-115.5	2.29		
85.5	-115.5	2.285		
85.6	-115.5	2.29		
85.7	-115.65	2.29		
85.8	-115.65	2.29		
85.9	-115.65	2.29		
86	-115.5	2.285		
86.1	-115.8	2.285		
86.2	-115.5	2.285		
86.3	-115.8	2.285		
86.4	-115.8	2.285		
86.5	-115.8	2.29		
86.6	-115.8	2.295		
86.7	-115.95	2.29		
86.8	-115.95	2.29		
86.9	-115.95	2.29		
87	-115.8	2.285		
87.1	-116.1	2.285		
87.2	-115.95	2.29		
87.3	-115.95	2.285		
87.4	-115.95	2.29		
87.5	-115.95	2.285		
87.6	-115.95	2.29		
87.7	-115.95	2.29		
87.8	-116.1	2.285		
87.9	-116.1	2.29		
88	-116.1	2.29		
88.1	-116.25	2.29		
88.2	-116.1	2.285		
88.3	-116.1	2.29		
88.4	-116.1	2.29		
88.5	-116.25	2.285		
88.6	-116.1	2.285		
88.7	-116.25	2.29		
88.8	-116.25	2.29		
88.9	-116.25	2.285		
89	-116.4	2.29		
89.1	-116.4	2.29		
89.2	-116.4	2.29		
89.3	-116.4	2.285		
89.4	-116.55	2.29		
89.5	-116.4	2.285		
89.6	-116.55	2.28		
89.7	-116.4	2.28		
89.8	-116.55	2.27		
89.9	-116.55	2.265		
90	-116.55	2.265		
90.1	-116.55	2.26		
90.2	-116.55	2.255		
90.3	-116.7	2.25		
90.4	-116.55	2.25		
90.5	-116.7	2.245		
90.6	-116.7	2.245		
90.7	-116.7	2.24		
90.8	-116.7	2.235		
90.9	-116.7	2.23		
91	-116.85	2.225		
91.1	-116.85	2.225		
91.2	-116.85	2.225		
91.3	-116.85	2.205		
91.4	-116.85	2.2		
91.5	-116.7	2.2		
91.6	-116.85	2.195		
91.7	-116.85	2.19		
91.8	-116.7	2.19		
91.9	-116.85	2.19		
92	-116.85	2.185		
92.1	-116.85	2.18		
92.2	-116.85	2.175		
92.3	-116.85	2.17		
92.4	-116.85	2.16		
92.5	-116.85	2.145		
92.6	-117	2.15		
92.7	-117	2.14		
92.8	-117	2.13		
92.9	-117	2.125		
93	-117	2.115		
93.1	-117	2.11		
93.2	-117	2.105		
93.3	-117	2.095		
93.4	-117.15	2.1		
93.5	-117	2.095		
93.6	-117	2.085		
93.7	-117.15	2.075		
93.8	-117.15	2.07		
93.9	-117.15	2.065		
94	-117	2.055		
94.1	-117	2.045		
94.2	-117.15	2.045		
94.3	-117	2.035		
94.4	-117.15	2.03		
94.5	-117	2.025		
94.6	-117.15	2.02		
94.7	-117.15	2.015		
94.8	-117.15	2.01		
94.9	-117	2.005		
95	-117.15	2		
95.1	-117	1.99		
95.2	-117	1.985		
95.3	-117.15	1.975		
95.4	-117.15	1.975		
95.5	-117.15	1.975		
95.6	-117.15	1.96		
95.7	-117	1.96		
95.8	-117.15	1.955		
95.9	-117.15	1.95		
96	-117.15	1.945		
96.1	-117.15	1.95		
96.2	-117	1.94		
96.3	-117.15	1.935		
96.4	-117	1.935		
96.5	-117	1.935		
96.6	-117	1.925		
96.7	-117	1.915		
96.8	-117.15	1.91		
96.9	-117.15	1.91		
97	-117	1.905		
97.1	-117.15	1.91		
97.2	-117.15	1.9		
97.3	-117.15	1.895		
97.4	-117	1.89		
97.5	-117	1.88		
97.6	-117	1.87		
97.7	-117	1.86		
97.8	-117.15	1.855		
97.9	-117	1.84		
98	-117.15	1.835		
98.1	-117.15	1.825		
98.2	-117	1.82		
98.3	-117	1.82		
98.4	-117	1.81		
98.5	-116.85	1.795		
98.6	-117	1.795		
98.7	-116.85	1.79		
98.8	-116.85	1.78		
98.9	-116.85	1.78		
99	-116.85	1.775		
99.1	-117	1.765		
99.2	-116.85	1.75		
99.3	-116.85	1.745		
99.4	-116.85	1.735		
99.5	-116.85	1.72		
99.6	-117	1.71		
99.7	-116.7	1.705		
99.8	-116.85	1.695		
99.9	-116.7	1.685		
100	-116.85	1.675		
100.1	-116.7	1.67		
100.2	-116.7	1.655		
100.3	-116.85	1.65		
100.4	-116.85	1.65		
100.5	-116.7	1.65		
100.6	-116.7	1.65		
100.7	-116.7	1.65		
100.8	-116.85	1.65		
100.9	-116.7	1.655		
101	-116.7	1.645		
101.1	-116.7	1.64		
101.2	-116.55	1.63		
101.3	-116.55	1.615		
101.4	-116.55	1.615		
101.5	-116.55	1.605		
101.6	-116.55	1.595		
101.7	-116.55	1.59		
101.8	-116.55	1.595		
101.9	-116.4	1.585		
102	-116.55	1.575		
102.1	-116.4	1.575		
102.2	-116.4	1.57		
102.3	-116.4	1.56		
102.4	-116.4	1.555		
102.5	-116.4	1.54		
102.6	-116.4	1.54		
102.7	-116.55	1.53		
102.8	-116.4	1.525		
102.9	-116.4	1.515		
103	-116.25	1.505		
103.1	-116.25	1.505		
103.2	-116.25	1.5		
103.3	-116.25	1.485		
103.4	-116.1	1.485		
103.5	-116.25	1.475		
103.6	-116.25	1.465		
103.7	-116.25	1.455		
103.8	-116.25	1.455		
103.9	-116.1	1.45		
104	-115.95	1.445		
104.1	-116.1	1.43		
104.2	-115.95	1.43		
104.3	-116.1	1.43		
104.4	-115.95	1.425		
104.5	-115.95	1.425		
104.6	-115.95	1.425		
104.7	-115.95	1.42		
104.8	-115.95	1.415		
104.9	-115.95	1.41		
105	-115.8	1.4		
105.1	-115.95	1.395		
105.2	-115.8	1.39		
105.3	-115.8	1.38		
105.4	-115.8	1.38		
105.5	-115.8	1.38		
105.6	-115.65	1.365		
105.7	-115.65	1.345		
105.8	-115.65	1.345		
105.9	-115.65	1.335		
106	-115.65	1.33		
106.1	-115.5	1.33		
106.2	-115.65	1.325		
106.3	-115.5	1.315		
106.4	-115.5	1.3		
106.5	-115.5	1.305		
106.6	-115.5	1.29		
106.7	-115.5	1.285		
106.8	-115.35	1.275		
106.9	-115.35	1.27		
107	-115.35	1.27		
107.1	-115.35	1.26		
107.2	-115.35	1.245		
107.3	-115.2	1.235		
107.4	-115.2	1.24		
107.5	-115.05	1.22		
107.6	-115.35	1.21		
107.7	-115.2	1.205		
107.8	-115.05	1.195		
107.9	-115.2	1.185		
108	-115.05	1.185		
108.1	-115.05	1.18		
108.2	-115.05	1.17		
108.3	-115.05	1.15		
108.4	-115.05	1.14		
108.5	-115.05	1.13		
108.6	-115.05	1.12		
108.7	-114.9	1.11		
108.8	-114.9	1.105		
108.9	-114.9	1.1		
109	-114.9	1.09		
109.1	-114.75	1.085		
109.2	-114.75	1.065		
109.3	-114.6	1.05		
109.4	-114.75	1.045		
109.5	-114.6	1.035		
109.6	-114.6	1.03		
109.7	-114.6	1.025		
109.8	-114.45	1.02		
109.9	-114.6	1.015		
110	-114.45	1		
110.1	-114.45	0.995		
110.2	-114.3	0.99		
110.3	-114.3	0.99		
110.4	-114.3	0.975		
110.5	-114.15	0.97		
110.6	-114.3	0.965		
110.7	-114.15	0.955		
110.8	-114.15	0.955		
110.9	-114.15	0.945		
111	-114.15	0.94		
111.1	-114	0.935		
111.2	-114.15	0.94		
111.3	-113.85	0.945		
111.4	-113.85	0.94		
111.5	-113.85	0.94		
111.6	-113.7	0.93		
111.7	-113.85	0.935		
111.8	-113.7	0.925		
111.9	-113.7	0.915		
112	-113.7	0.91		
112.1	-113.55	0.9		
112.2	-113.55	0.895		
112.3	-113.55	0.875		
112.4	-113.55	0.87		
112.5	-113.4	0.86		
112.6	-113.4	0.845		
112.7	-113.55	0.845		
112.8	-113.25	0.835		
112.9	-113.25	0.835		
113	-113.25	0.82		
113.1	-113.1	0.815		
113.2	-113.1	0.8		
113.3	-113.1	0.795		
113.4	-113.1	0.785		
113.5	-112.95	0.785		
113.6	-113.1	0.775		
113.7	-112.95	0.765		
113.8	-112.8	0.76		
113.9	-112.8	0.75		
114	-112.8	0.745		
114.1	-112.65	0.735		
114.2	-112.65	0.73		
114.3	-112.65	0.71		
114.4	-112.65	0.705		
114.5	-112.65	0.705		
114.6	-112.5	0.68		
114.7	-112.5	0.68		
114.8	-112.5	0.665		
114.9	-112.5	0.66		
115	-112.35	0.65		
115.1	-112.35	0.645		
115.2	-112.2	0.64		
115.3	-112.2	0.63		
115.4	-112.2	0.63		
115.5	-112.05	0.615		
115.6	-112.05	0.615		
115.7	-112.05	0.61		
115.8	-111.9	0.59		
115.9	-111.9	0.6		
116	-111.9	0.595		
116.1	-111.75	0.585		
116.2	-111.75	0.585		
116.3	-111.6	0.575		
116.4	-111.75	0.575		
116.5	-111.6	0.56		
116.6	-111.6	0.545		
116.7	-111.45	0.55		
116.8	-111.45	0.535		
116.9	-111.3	0.53		
117	-111.15	0.525		
117.1	-111.3	0.515		
117.2	-111.15	0.505		
117.3	-111.15	0.49		
117.4	-111.15	0.475		
117.5	-111.15	0.46		
117.6	-111.15	0.45		
117.7	-111	0.445		
117.8	-110.85	0.445		
117.9	-110.7	0.43		
118	-110.7	0.42		
118.1	-110.85	0.41		
118.2	-110.7	0.385		
118.3	-110.7	0.385		
118.4	-110.55	0.375		
118.5	-110.55	0.36		
118.6	-110.25	0.355		
118.7	-110.4	0.34		
118.8	-110.25	0.335		
118.9	-110.25	0.315		
119	-110.1	0.295		
119.1	-110.1	0.27		
119.2	-110.1	0.255		
119.3	-109.95	0.24		
119.4	-109.95	0.23		
119.5	-109.95	0.215		
119.6	-109.8	0.205		
119.7	-109.8	0.195		
119.8	-109.65	0.185		
119.9	-109.65	0.18		
120	-109.65	0.175		
120.1	-109.65	0.16		
120.2	-109.5	0.145		
120.3	-109.35	0.14		
120.4	-109.35	0.13		
120.5	-109.2	0.12		
120.6	-109.05	0.125		
120.7	-109.05	0.125		
120.8	-109.05	0.125		
120.9	-109.05	0.125		
121	-108.9	0.125		
121.1	-108.75	0.115		
121.2	-108.75	0.1		
121.3	-108.6	0.095		
121.4	-108.75	0.075		
121.5	-108.6	0.06		
121.6	-108.45	0.05		
121.7	-108.45	0.015		
121.8	-108.3	-0.005		
121.9	-108.3	-0.015		
122	-108.15	-0.025		
122.1	-108.15	-0.05		
122.2	-108.3	-0.065		
122.3	-108.15	-0.08		
122.4	-108	-0.1		
122.5	-107.85	-0.115		
122.6	-107.85	-0.125		
122.7	-107.7	-0.145		
122.8	-107.55	-0.16		
122.9	-107.55	-0.16		
123	-107.55	-0.155		
123.1	-107.25	-0.16		
123.2	-107.4	-0.16		
123.3	-107.25	-0.16		
123.4	-107.25	-0.155		
123.5	-107.1	-0.16		
123.6	-106.95	-0.16		
123.7	-106.95	-0.155		
123.8	-106.8	-0.145		
123.9	-106.95	-0.155		
124	-106.8	-0.16		
124.1	-106.8	-0.155		
124.2	-106.8	-0.155		
124.3	-106.5	-0.15		
124.4	-106.5	-0.16		
124.5	-106.35	-0.15		
124.6	-106.35	-0.155		
124.7	-106.2	-0.155		
124.8	-106.2	-0.15		
124.9	-106.2	-0.155		
125	-106.05	-0.155		
125.1	-106.05	-0.155		
125.2	-105.9	-0.15		
125.3	-105.9	-0.155		
125.4	-105.75	-0.15		
125.5	-105.75	-0.155		
125.6	-105.75	-0.15		
125.7	-105.75	-0.155		
125.8	-105.6	-0.15		
125.9	-105.6	-0.15		
126	-105.45	-0.15		
126.1	-105.45	-0.15		
126.2	-105.45	-0.15		
126.3	-105.3	-0.155		
126.4	-105.3	-0.155		
126.5	-105.3	-0.15		
126.6	-105.15	-0.155		
126.7	-105.15	-0.155		
126.8	-104.85	-0.15		
126.9	-105	-0.15		
127	-104.7	-0.155		
127.1	-104.85	-0.15		
127.2	-104.7	-0.155		
127.3	-104.7	-0.145		
127.4	-104.7	-0.155		
127.5	-104.55	-0.155		
127.6	-104.55	-0.155		
127.7	-104.55	-0.15		
127.8	-104.55	-0.155		
127.9	-104.25	-0.15		
128	-104.25	-0.155		
128.1	-104.25	-0.15		
128.2	-104.25	-0.15		
128.3	-104.1	-0.15		
128.4	-104.1	-0.145		
128.5	-104.1	-0.15		
128.6	-103.95	-0.15		
128.7	-103.95	-0.155		
128.8	-103.95	-0.155		
128.9	-103.8	-0.15		
129	-103.8	-0.15		
129.1	-103.65	-0.155		
129.2	-103.65	-0.15		
129.3	-103.65	-0.15		
129.4	-103.65	-0.145		
129.5	-103.5	-0.15		
129.6	-103.5	-0.15		
129.7	-103.35	-0.15		
129.8	-103.35	-0.15		
129.9	-103.35	-0.15		
130	-103.2	-0.15		
130.1	-103.2	-0.15		
130.2	-103.2	-0.15		
130.3	-103.2	-0.15		
130.4	-103.05	-0.145		
130.5	-102.9	-0.155		
130.6	-102.9	-0.145		
130.7	-102.9	-0.15		
130.8	-102.75	-0.15		
130.9	-102.75	-0.15		
131	-102.75	-0.15		
131.1	-102.6	-0.15		
131.2	-102.6	-0.15		
131.3	-102.6	-0.15		
131.4	-102.6	-0.15		
131.5	-102.45	-0.15		
131.6	-102.45	-0.145		
131.7	-102.3	-0.15		
131.8	-102.45	-0.155		
131.9	-102.3	-0.15		
132	-102.3	-0.15		
132.1	-102.3	-0.15		
132.2	-102.15	-0.135		
132.3	-102.15	-0.145		
132.4	-102.15	-0.15		
132.5	-102	-0.15		
132.6	-102.15	-0.145		
132.7	-102.15	-0.15		
132.8	-101.85	-0.145		
132.9	-101.85	-0.15		
133	-101.7	-0.15		
133.1	-101.7	-0.15		
133.2	-101.7	-0.15		
133.3	-101.7	-0.155		
133.4	-101.55	-0.15		
133.5	-101.55	-0.15		
133.6	-101.4	-0.145		
133.7	-101.4	-0.15		
133.8	-101.55	-0.15		
133.9	-101.4	-0.145		
134	-101.4	-0.15		
134.1	-101.25	-0.15		
134.2	-101.25	-0.15		
134.3	-101.1	-0.145		
134.4	-101.1	-0.15		
134.5	-101.1	-0.15		
134.6	-101.1	-0.15		
134.7	-101.1	-0.145		
134.8	-101.1	-0.15		
134.9	-100.95	-0.15		
135	-100.95	-0.145		
135.1	-100.8	-0.145		
135.2	-100.8	-0.15		
135.3	-100.8	-0.15		
135.4	-100.8	-0.15		
135.5	-100.65	-0.145		
135.6	-100.65	-0.145		
135.7	-100.65	-0.15		
135.8	-100.5	-0.15		
135.9	-100.5	-0.15		
136	-100.65	-0.15		
136.1	-100.5	-0.15		
136.2	-100.35	-0.145		
136.3	-100.35	-0.145		
136.4	-100.35	-0.15		
136.5	-100.2	-0.15		
136.6	-100.2	-0.145		
136.7	-100.35	-0.15		
136.8	-100.2	-0.15		
136.9	-100.2	-0.15		
137	-100.05	-0.15		
137.1	-100.2	-0.15		
137.2	-99.9	-0.15		
137.3	-100.05	-0.15		
137.4	-99.9	-0.145		
137.5	-99.9	-0.15		
137.6	-99.9	-0.15		
137.7	-99.9	-0.145		
137.8	-99.75	-0.15		
137.9	-99.6	-0.145		
138	-99.75	-0.15		
138.1	-99.75	-0.145		
138.2	-99.6	-0.145		
138.3	-99.6	-0.15		
138.4	-99.6	-0.145		
138.5	-99.6	-0.15		
138.6	-99.45	-0.15		
138.7	-99.45	-0.15		
138.8	-99.45	-0.15		
138.9	-99.45	-0.145		
139	-99.45	-0.15		
139.1	-99.45	-0.145		
139.2	-99.3	-0.14		
139.3	-99.3	-0.145		
139.4	-99.3	-0.145		
139.5	-99.15	-0.15		
139.6	-99	-0.15		
139.7	-99	-0.145		
139.8	-99	-0.145		
139.9	-99	-0.145		
140	-99.15	-0.145		
140.1	-99	-0.145		
140.2	-99	-0.145		
140.3	-99	-0.14		
140.4	-98.7	-0.14		
140.5	-98.85	-0.145		
140.6	-98.7	-0.145		
140.7	-98.7	-0.145		
140.8	-98.7	-0.15		
140.9	-98.7	-0.145		
141	-98.7	-0.145		
141.1	-98.7	-0.15		
141.2	-98.55	-0.14		
141.3	-98.55	-0.145		
141.4	-98.55	-0.15		
141.5	-98.55	-0.145		
141.6	-98.4	-0.145		
141.7	-98.55	-0.14		
141.8	-98.4	-0.14		
141.9	-98.25	-0.145		
142	-98.25	-0.15		
142.1	-98.25	-0.145		
142.2	-98.25	-0.145		
142.3	-98.25	-0.15		
142.4	-98.25	-0.145		
142.5	-98.1	-0.145		
142.6	-97.95	-0.15		
142.7	-98.1	-0.15		
142.8	-97.95	-0.15		
142.9	-97.95	-0.145		
143	-97.95	-0.145		
143.1	-97.95	-0.145		
143.2	-97.95	-0.145		
143.3	-97.8	-0.145		
143.4	-97.8	-0.145		
143.5	-97.8	-0.145		
143.6	-97.8	-0.145		
143.7	-97.8	-0.14		
143.8	-97.65	-0.145		
143.9	-97.65	-0.145		
144	-97.65	-0.145		
144.1	-97.5	-0.145		
144.2	-97.65	-0.145		
144.3	-97.5	-0.145		
144.4	-97.5	-0.145		
144.5	-97.5	-0.145		
144.6	-97.5	-0.145		
144.7	-97.5	-0.145		
144.8	-97.5	-0.14		
144.9	-97.2	-0.145		
145	-97.35	-0.145		
145.1	-97.35	-0.145		
145.2	-97.35	-0.14		
145.3	-97.35	-0.145		
145.4	-97.2	-0.145		
145.5	-97.2	-0.135		
145.6	-97.05	-0.15		
145.7	-97.2	-0.145		
145.8	-97.05	-0.145		
145.9	-97.05	-0.145		
146	-97.05	-0.14		
146.1	-97.05	-0.145		
146.2	-97.05	-0.145		
146.3	-96.9	-0.14		
146.4	-96.9	-0.145		
146.5	-96.9	-0.145		
146.6	-96.9	-0.14		
146.7	-96.75	-0.14		
146.8	-96.75	-0.145		
146.9	-96.6	-0.145		
147	-96.75	-0.145		
147.1	-96.6	-0.145		
147.2	-96.75	-0.14		
147.3	-96.45	-0.145		
147.4	-96.6	-0.14		
147.5	-96.45	-0.145		
147.6	-96.45	-0.14		
147.7	-96.45	-0.145		
147.8	-96.45	-0.14		
147.9	-96.3	-0.145		
148	-96.45	-0.145		
148.1	-96.45	-0.14		
148.2	-96.45	-0.145		
148.3	-96.45	-0.145		
148.4	-96.3	-0.145		
148.5	-96.3	-0.14		
148.6	-96.15	-0.14		
148.7	-96.15	-0.145		
148.8	-96.15	-0.145		
148.9	-96.15	-0.145		
149	-96.15	-0.145		
149.1	-96.15	-0.14		
149.2	-96.15	-0.145		
149.3	-96.3	-0.14		
149.4	-96	-0.145		
149.5	-95.85	-0.145		
149.6	-96.15	-0.14		
149.7	-96	-0.145		
149.8	-96	-0.145		
149.9	-96	-0.145		
150	-95.85	-0.14		
150.1	-95.85	-0.14		
150.2	-95.85	-0.145		
150.3	-96	-0.145		
150.4	-95.85	-0.145		
150.5	-95.7	-0.14		
150.6	-95.7	-0.145		
150.7	-95.85	-0.14		
150.8	-95.7	-0.145		
150.9	-95.7	-0.135		
151	-95.7	-0.145		
151.1	-95.55	-0.145		
151.2	-95.55	-0.135		
151.3	-95.55	-0.145		
151.4	-95.55	-0.145		
151.5	-95.55	-0.14		
151.6	-95.55	-0.14		
151.7	-95.4	-0.14		
151.8	-95.55	-0.14		
151.9	-95.55	-0.145		
152	-95.4	-0.145		
152.1	-95.4	-0.14		
152.2	-95.25	-0.14		
152.3	-95.4	-0.145		
152.4	-95.25	-0.145		
152.5	-95.25	-0.145		
152.6	-95.25	-0.145		
152.7	-95.25	-0.145		
152.8	-95.25	-0.145		
152.9	-95.25	-0.145		
153	-95.1	-0.145		
153.1	-95.1	-0.145		
153.2	-95.25	-0.14		
153.3	-95.1	-0.14		
153.4	-95.1	-0.14		
153.5	-94.95	-0.14		
153.6	-94.95	-0.145		
153.7	-94.95	-0.14		
153.8	-95.1	-0.145		
153.9	-94.95	-0.145		
154	-94.95	-0.145		
154.1	-94.95	-0.14		
154.2	-94.8	-0.145		
154.3	-94.8	-0.145		
154.4	-94.95	-0.14		
154.5	-94.8	-0.14		
154.6	-94.95	-0.14		
154.7	-94.65	-0.145		
154.8	-94.8	-0.14		
154.9	-94.8	-0.145		
155	-94.8	-0.145		
155.1	-94.65	-0.145		
155.2	-94.5	-0.135		
155.3	-94.65	-0.145		
155.4	-94.65	-0.14		
155.5	-94.65	-0.145		
155.6	-94.65	-0.14		
155.7	-94.5	-0.14		
155.8	-94.5	-0.135		
155.9	-94.5	-0.145		
156	-94.35	-0.14		
156.1	-94.35	-0.14		
156.2	-94.5	-0.14		
156.3	-94.5	-0.14		
156.4	-94.35	-0.14		
156.5	-94.35	-0.145		
156.6	-94.35	-0.135		
156.7	-94.2	-0.135		
156.8	-94.35	-0.14		
156.9	-94.2	-0.14		
157	-94.35	-0.145		
157.1	-94.2	-0.14		
157.2	-94.2	-0.14		
157.3	-94.05	-0.145		
157.4	-94.2	-0.14		
157.5	-94.2	-0.145		
157.6	-94.05	-0.14		
157.7	-94.05	-0.14		
157.8	-94.05	-0.14		
157.9	-94.05	-0.145		
158	-93.9	-0.13		
158.1	-93.9	-0.14		
158.2	-93.9	-0.14		
158.3	-93.9	-0.145		
158.4	-93.9	-0.14		
158.5	-93.9	-0.135		
158.6	-93.75	-0.145		
158.7	-93.75	-0.14		
158.8	-93.75	-0.145		
158.9	-93.75	-0.145		
159	-93.9	-0.14		
159.1	-93.75	-0.145		
159.2	-93.75	-0.14		
159.3	-93.6	-0.14		
159.4	-93.75	-0.14		
159.516	-93.75	-0.14		
159.603	-93.6	-0.14		
159.702	-93.75	-0.135		
159.803	-93.75	-0.14		
159.903	-93.6	-0.145		
160.003	-93.6	-0.14		
160.103	-93.6	-0.14		
160.202	-93.6	-0.135		
160.303	-93.45	-0.14		
160.403	-93.45	-0.145		
160.503	-93.45	-0.14		
160.603	-93.45	-0.14		
160.702	-93.45	-0.14		
160.803	-93.45	-0.14		
160.903	-93.3	-0.14		
161.003	-93.3	-0.14		
161.103	-93.3	-0.14		
161.203	-93.3	-0.14		
161.303	-93.3	-0.145		
161.403	-93.15	-0.145		
161.503	-93.3	-0.14		
161.603	-93.3	-0.14		
161.703	-93.15	-0.135		
161.803	-93.3	-0.14		
161.903	-93.15	-0.145		
162.003	-93.15	-0.135		
162.104	-93.15	-0.14		
162.203	-93.15	-0.14		
162.303	-93.15	-0.14		
162.403	-93	-0.145		
162.503	-93	-0.145		
162.603	-93	-0.14		
162.703	-93.15	-0.145		
162.803	-93	-0.135		
162.903	-93.15	-0.14		
163.003	-92.85	-0.145		
163.108	-93	-0.14		
163.203	-92.85	-0.14		
163.303	-92.85	-0.14		
163.403	-92.85	-0.14		
163.503	-92.85	-0.14		
163.603	-93	-0.14		
163.703	-92.85	-0.14		
163.803	-92.85	-0.14		
163.903	-92.85	-0.135		
164.003	-92.7	-0.14		
164.103	-92.7	-0.14		
164.203	-92.7	-0.14		
164.303	-92.7	-0.14		
164.403	-92.7	-0.15		
164.503	-92.7	-0.14		
164.603	-92.7	-0.14		
164.703	-92.7	-0.14		
164.803	-92.55	-0.14		
164.903	-92.55	-0.14		
165.003	-92.55	-0.135		
165.103	-92.55	-0.14		
165.203	-92.55	-0.14		
165.303	-92.55	-0.14		
165.403	-92.55	-0.13		
165.503	-92.55	-0.14		
165.603	-92.55	-0.14		
165.703	-92.55	-0.14		
165.803	-92.55	-0.145		
165.903	-92.4	-0.14		
166.003	-92.4	-0.145		
166.103	-92.55	-0.145		
166.203	-92.55	-0.145		
166.303	-92.4	-0.135		
166.403	-92.4	-0.14		
166.503	-92.25	-0.14		
166.603	-92.25	-0.135		
166.703	-92.25	-0.14		
166.803	-92.25	-0.135		
166.903	-92.1	-0.14		
167.003	-92.25	-0.135		
167.103	-92.25	-0.14		
167.203	-92.1	-0.14		
167.303	-92.1	-0.135		
167.403	-92.25	-0.14		
167.503	-92.25	-0.14		
167.603	-92.1	-0.135		
167.703	-92.1	-0.14		
167.803	-92.1	-0.145		
167.903	-92.1	-0.135		
168.003	-92.25	-0.14		
168.103	-92.1	-0.145		
168.203	-91.95	-0.145		
168.303	-91.95	-0.14		
168.403	-91.95	-0.14		
168.503	-91.95	-0.14		
168.603	-91.95	-0.14		
168.703	-91.95	-0.135		
168.803	-91.95	-0.14		
168.903	-91.95	-0.14		
169.004	-91.95	-0.135		
169.103	-91.95	-0.14		
169.203	-91.8	-0.135		
169.303	-91.95	-0.135		
169.403	-91.95	-0.14		
169.504	-91.8	-0.135		
169.603	-91.8	-0.14		
169.703	-91.8	-0.14		
169.803	-91.65	-0.14		
169.903	-91.65	-0.14		
170.004	-91.8	-0.14		
170.103	-91.65	-0.14		
170.203	-91.65	-0.14		
170.303	-91.65	-0.145		
170.403	-91.65	-0.14		
170.504	-91.65	-0.145		
170.603	-91.65	-0.135		
170.703	-91.65	-0.14		
170.803	-91.5	-0.14		
170.903	-91.65	-0.145		
171.004	-91.65	-0.14		
171.103	-91.5	-0.145		
171.203	-91.5	-0.14		
171.303	-91.5	-0.145		
171.403	-91.35	-0.14		
171.504	-91.5	-0.135		
171.603	-91.5	-0.14		
171.703	-91.5	-0.14		
171.803	-91.35	-0.14		
171.903	-91.5	-0.135		
172.004	-91.35	-0.14		
172.103	-91.5	-0.135		
172.203	-91.35	-0.145		
172.303	-91.35	-0.14		
172.403	-91.35	-0.135		
172.504	-91.35	-0.14		
172.603	-91.35	-0.14		
172.703	-91.35	-0.14		
172.803	-91.2	-0.12		
172.903	-91.35	-0.14		
173.004	-91.2	-0.14		
173.103	-91.35	-0.135		
173.203	-91.2	-0.14		
173.303	-91.35	-0.14		
173.403	-91.2	-0.145		
173.504	-91.2	-0.14		
173.603	-91.35	-0.135		
173.703	-91.2	-0.14		
173.803	-91.2	-0.14		
173.903	-91.05	-0.145		
174.004	-91.05	-0.14		
174.103	-91.05	-0.145		
174.203	-91.05	-0.145		
174.303	-91.2	-0.14		
174.403	-91.05	-0.14		
174.504	-91.05	-0.145		
174.603	-91.05	-0.14		
174.703	-90.9	-0.14		
174.803	-91.05	-0.135		
174.903	-90.9	-0.14		
175.004	-90.9	-0.14		
175.103	-90.9	-0.14		
175.203	-90.9	-0.135		
175.304	-90.9	-0.14		
175.403	-90.9	-0.135		
175.504	-90.9	-0.14		
175.603	-90.9	-0.14		
175.703	-90.75	-0.14		
175.804	-90.9	-0.14		
175.903	-90.75	-0.14		
176.004	-90.75	-0.135		
176.103	-90.75	-0.14		
176.203	-90.75	-0.14		
176.304	-90.75	-0.14		
176.403	-90.75	-0.145		
176.504	-90.75	-0.14		
176.603	-90.75	-0.14		
176.703	-90.75	-0.135		
176.804	-90.75	-0.135		
176.903	-90.75	-0.135		
177.004	-90.6	-0.14		
177.103	-90.75	-0.14		
177.203	-90.75	-0.14		
177.304	-90.75	-0.14		
177.403	-90.6	-0.14		
177.504	-90.6	-0.145		
177.603	-90.6	-0.14		
177.703	-90.6	-0.14		
177.804	-90.6	-0.135		
177.903	-90.6	-0.14		
178.004	-90.6	-0.14		
178.103	-90.45	-0.14		
178.203	-90.45	-0.14		
178.304	-90.6	-0.14		
178.403	-90.6	-0.14		
178.504	-90.45	-0.14		
178.603	-90.45	-0.14		
178.703	-90.45	-0.14		
178.804	-90.45	-0.14		
178.903	-90.45	-0.135		
179.004	-90.45	-0.14		
179.103	-90.3	-0.135		
179.203	-90.45	-0.14		
179.304	-90.3	-0.14		
179.403	-90.3	-0.14		
179.504	-90.3	-0.135		
179.603	-90.45	-0.14		
179.703	-90.3	-0.14		
179.804	-90.3	-0.135		
179.903	-90.3	-0.135		
180.004	-90.3	-0.14		
180.103	-90.15	-0.135		
180.203	-90.3	-0.135		
180.304	-90.3	-0.14		
180.403	-90.15	-0.135		
180.504	-90.15	-0.14		
180.603	-90.15	-0.14		
180.703	-90.15	-0.14		
180.804	-90.15	-0.14		
180.903	-90.15	-0.14		
181.004	-90.15	-0.14		
181.103	-90.15	-0.145		
181.203	-90.15	-0.14		
181.304	-90.15	-0.135		
181.403	-90	-0.135		
181.504	-90.15	-0.14		
181.603	-90.15	-0.14		
181.703	-90.15	-0.135		
181.804	-90.15	-0.14		
181.903	-90	-0.135		
182.004	-90	-0.135		
182.104	-90.15	-0.14		
182.203	-90	-0.14		
182.304	-89.85	-0.14		
182.403	-90	-0.14		
