#INFO
#COMMENT:

#DATA:
0.5456164	1.6414e-005	0.00219630059
0.5456164	1.7137e-005	0.00219630059
0.545574	-9.29e-007	0.00217021593
0.5456375	1.2388e-005	0.00218119879
0.5456375	2.2815e-005	0.00218823083
0.5456375	1.6621e-005	0.00217515381
0.5456587	1.1562e-005	0.00219094388
0.5456375	1.8376e-005	0.00218368242
0.5456798	1.8892e-005	0.0021985548
0.545701	8.362e-006	0.00222264404
0.5457222	1.9821e-005	0.00223156211
0.5457645	2.6118e-005	0.0022348834
0.5458068	1.022e-005	0.0022469227
0.5458491	1.404e-005	0.00225488307
0.545701	1.724e-005	0.00225793492
0.5469599	1.7034e-005	0.00227480272
0.5494777	7.33e-006	0.00230034851
0.5509693	2.3331e-005	0.00232470719
0.5522493	1.8582e-005	0.00232926626
0.5530745	1.4763e-005	0.00236994322
0.5538573	2.9319e-005	0.00238022717
0.5547671	1.961e-006	0.00239965861
0.5560366	6.194e-006	0.0024303317
0.5572425	1.1046e-005	0.00246241068
0.5585966	3.0145e-005	0.00250787613
0.5599507	-2.271e-006	0.00252355681
0.5608182	1.5485e-005	0.00254049398
0.5613048	1.0943e-005	0.00254975085
0.5636322	1.3421e-005	0.00261139583
0.5645631	4.646e-006	0.00262933071
0.5653248	2.5189e-005	0.00266459223
0.5666789	-2.581e-006	0.00270511979
0.569239	4.026e-006	0.0027598021
0.5708364	1.3937e-005	0.00281773633
0.5719366	1.6827e-005	0.00292313141
0.5733965	1.6105e-005	0.0030256134
0.5743063	1.693e-005	0.00313226498
0.5755546	1.2801e-005	0.00321088714
0.5769298	5.575e-006	0.00329601312
0.5783262	1.6724e-005	0.00335868517
0.5795745	1.2904e-005	0.00339451491
0.580442	1.1149e-005	0.00341703822
0.5821769	2.2195e-005	0.00343822501
0.5833618	-1.961e-006	0.00346869804
0.5851813	1.2078e-005	0.00350189477
0.5864931	1.7137e-005	0.00357642736
0.5876251	1.7034e-005	0.0036604756
0.5883762	9.911e-006	0.00375572549
0.5898678	1.9615e-005	0.00392004186
0.5909257	1.724e-005	0.00414508552
0.5911796	1.9098e-005	0.00432764622
0.5921105	1.1459e-005	0.00457223071
0.5927452	2.5086e-005	0.00482955341
0.5931472	1.9305e-005	0.00516326278
0.5942898	1.3524e-005	0.0056364923
0.5954746	1.6208e-005	0.00605536767
0.5964478	1.4659e-005	0.00648190461
0.5970085	1.7447e-005	0.00683122529
0.5975481	2.1989e-005	0.00707673811
0.5979924	1.435e-005	0.0074649804
0.5993041	1.3317e-005	0.00776979333
0.6001505	2.2299e-005	0.00803568465
0.6005313	1.8995e-005	0.00826610374
0.6015257	1.1149e-005	0.00871233091
0.6029962	2.8183e-005	0.00915396965
0.6034828	2.0647e-005	0.00946065796
0.604181	1.7343e-005	0.00984485069
0.6048792	2.7873e-005	0.0102849235
0.6057678	2.426e-005	0.0107652144
0.6066353	1.6208e-005	0.0111231437
0.607397	3.1177e-005	0.0114725044
0.6080952	2.6118e-005	0.0117447101
0.6081587	1.7653e-005	0.0119732538
0.6093012	1.8685e-005	0.0122215891
0.6090896	2.137e-005	0.0124818143
0.6102744	2.4776e-005	0.0128652894
0.6114593	2.4054e-005	0.0131755684
0.6121786	3.0454e-005	0.0134437139
0.6133212	3.2106e-005	0.0137486362
0.6140194	2.8802e-005	0.0139979585
0.6144848	3.097e-005	0.0143471405
0.6146541	3.2416e-005	0.0146774485
0.6150138	3.0661e-005	0.0149403467
0.6154263	3.4687e-005	0.01519744
0.6156062	3.1693e-005	0.0154649666
0.6168333	3.6029e-005	0.0157381594
0.6174046	3.3448e-005	0.0159879699
0.6180182	3.1074e-005	0.0161773039
0.6185048	4.5733e-005	0.0163331717
0.6187481	3.541e-005	0.0165358014
0.6191607	3.8197e-005	0.0167653241
0.6198589	4.6869e-005	0.0169794249
0.6201657	2.8699e-005	0.0171392729
0.6206735	3.9642e-005	0.0172395701
0.6206417	4.6043e-005	0.017266463
0.6208956	4.7178e-005	0.0173751687
0.6211495	3.9745e-005	0.0175472961
0.621213	5.9463e-005	0.017790384
0.6216256	5.265e-005	0.0179924455
0.6218371	5.0482e-005	0.0180982194
0.6221334	6.2044e-005	0.0182474634
0.6225565	6.3902e-005	0.018435989
0.6229162	6.4109e-005	0.0185695229
0.623424	6.607e-005	0.0186437967
0.6239318	6.8238e-005	0.0187698184
0.6242703	6.4315e-005	0.0188764006
0.6247146	7.1232e-005	0.0190435901
0.6249473	7.2058e-005	0.0191705001
0.6251378	7.1438e-005	0.0191931435
0.6250214	6.9477e-005	0.0192820202
0.6251378	7.1955e-005	0.0193531809
0.6249473	7.66e-005	0.0194101174
0.6250743	7.66e-005	0.0195467938
0.6258783	7.5671e-005	0.019739249
0.6264072	8.5995e-005	0.0199537793
0.6271266	8.7646e-005	0.0201724391
0.627317	8.5169e-005	0.0203417628
0.6276132	9.9415e-005	0.0205348768
0.627994	0.000100344	0.0208038094
0.6291154	0.000106745	0.0210363145
0.6300255	0.000116139	0.021203544
0.6305333	0.000114694	0.0213039612
0.6308083	0.000113971	0.0215854025
0.6310199	0.000136992	0.0217749259
0.6313373	0.000137509	0.0219268935
0.6314219	0.000134825	0.0221342717
0.6315277	0.000150516	0.0223259586
0.6319297	0.00015702	0.0225325392
0.6322047	0.000159394	0.0227533732
0.6324375	0.000168273	0.0229406824
0.6333896	0.000179009	0.0230877921
0.6328395	0.000185719	0.0232869005
0.6339397	0.000197591	0.0235903369
0.6343417	0.000207399	0.0238130864
0.635188	0.000202546	0.023941693
0.63559	0.000208018	0.023984096
0.6349129	0.000218858	0.0241067671
0.6355053	0.000238059	0.024414333
0.6365421	0.00024064	0.0246555162
0.6370499	0.000252099	0.0248005212
0.6371557	0.000262423	0.0250563073
0.6373461	0.000271198	0.0251633777
0.6375788	0.000273882	0.0252304194
0.6374942	0.000286476	0.0253350462
0.6377058	0.000302065	0.0255927371
0.6387425	0.000319098	0.0258317061
0.6393772	0.000341604	0.0260212588
0.6399696	0.000344391	0.0262337643
0.6402129	0.00035234	0.026281724
0.6410169	0.000373606	0.0264202945
0.6412074	0.00039384	0.0266972381
0.6414613	0.000407674	0.0268930146
0.6419267	0.000423882	0.0270746682
0.6429	0.000453923	0.0273761492
0.6432173	0.000462801	0.0275486847
0.6435559	0.000472608	0.0276289529
0.6437463	0.000483242	0.0277594643
0.6439156	0.000503785	0.0279791512
0.6439367	0.000523297	0.0281617226
0.6440213	0.000546421	0.0284254878
0.6436828	0.000565313	0.02864327
0.6437886	0.00059618	0.0288997844
0.6441694	0.000612801	0.029064789
0.6441271	0.000610324	0.0290652478
0.6442964	0.000629732	0.0291909014
0.6445926	0.000658947	0.0294629871
0.6451215	0.00066989	0.0296222562
0.6453966	0.000700034	0.0298445068
0.6456928	0.000719546	0.0300542992
0.6462535	0.000740399	0.0302199521
0.6464545	0.000773228	0.0305053736
0.6470892	0.000786545	0.0307561125
0.6472373	0.000801101	0.0309151228
0.6475547	0.000823916	0.0310088067
0.6477028	0.000834446	0.0311617614
0.6488241	0.000856745	0.0313788954
0.6494589	0.000897213	0.031634332
0.6495752	0.000900826	0.0318106583
0.6498609	0.000908775	0.031887864
0.6499244	0.000931796	0.0319945956
0.65021	0.000944907	0.0321490068
0.6505591	0.000962354	0.0323575321
0.6505802	0.000988059	0.0325429153
0.6508236	0.000992498	0.0326624251
0.6512573	0.000998589	0.0327254759
0.651215	0.00101521	0.0328258531
0.6514477	0.001045974	0.033120881
0.6514583	0.001052787	0.0333215659
0.6515323	0.001063111	0.0333979633
0.6516487	0.001086132	0.0335957858
0.6518497	0.001087681	0.033758835
0.6521459	0.001102547	0.0338296675
0.6521459	0.001100998	0.0338616665
0.6525479	0.001120406	0.0340616632
0.6527806	0.001128252	0.0342734804
0.6532884	0.001154267	0.034517366
0.6539655	0.001158087	0.0346343816
0.6543886	0.001174604	0.0347839749
0.6543463	0.001180489	0.0348881829
0.6547377	0.001180489	0.0349178983
0.6548753	0.001189986	0.0350812276
0.6556793	0.001216827	0.0353827086
0.6560178	0.0012383	0.0355858372
0.6563246	0.001243565	0.0357763476
0.6570334	0.001253269	0.0358984505
0.6575094	0.001258741	0.0359607437
0.6578268	0.001257915	0.0360951152
0.6584192	0.001278458	0.036252549
0.6591809	0.001296731	0.0364156889
0.6597521	0.001302615	0.0365624492
0.6601118	0.00130468	0.0366300591
0.6608312	0.001322436	0.036761947
0.6608735	0.001349381	0.0369326178
0.6617198	0.001343393	0.0373163517
0.6628517	0.001362595	0.0374954311
0.6628412	0.001357743	0.0374790328
0.6630527	0.001356401	0.0375262642
0.6626931	0.001368479	0.0376722963
0.6629046	0.001382106	0.0379685806
0.6634547	0.001391191	0.0381289968
0.6642799	0.001407915	0.0383585195
0.6656763	0.001427736	0.0386757612
0.6657715	0.001427942	0.0388492944
0.6662052	0.001438576	0.0388672987
0.6663322	0.001438059	0.0390487123
0.6664803	0.001443118	0.0390357553
0.6669669	0.001443324	0.0391456081
0.6674535	0.001461081	0.0393370068
0.6671785	0.001464694	0.0394909592
0.6673795	0.001465004	0.0395854808
0.6675805	0.001473366	0.0396499589
0.6674959	0.001472746	0.0396918736
0.6676651	0.001472436	0.0397724406
0.6681941	0.001481315	0.0399067027
0.668448	0.001490296	0.0400106413
0.6688711	0.001490296	0.0401049735
0.6686172	0.001497213	0.0402067272
0.6693366	0.001500826	0.0403354539
0.6693577	0.001504646	0.0404744939
0.6691462	0.00150733	0.0406636678
0.6693366	0.001514453	0.0407321447
0.6698232	0.001518995	0.0407937603
0.6697174	0.001514659	0.0408900479
0.6698867	0.001519718	0.0409574978
0.6701194	0.001523847	0.0410697355
0.6701406	0.001522196	0.0411176152
0.6701617	0.001525706	0.0412565058
0.6710292	0.001535306	0.0414282837
0.6711561	0.001534171	0.0416029934
0.6713889	0.001534687	0.0416361902
0.6715793	0.001539849	0.0416887677
0.6717486	0.001540468	0.0417593601
0.6718226	0.001546765	0.0419962536
0.6727641	0.001561012	0.0421347654
0.6731767	0.001554405	0.0421719717
0.6729334	0.001553682	0.0422820646
0.6729122	0.001565554	0.042333455
0.6729863	0.001562664	0.042361415
0.6727324	0.001558328	0.0424549096
0.6727959	0.001567103	0.0425757559
0.6725314	0.001567206	0.0426316547
0.6726583	0.001561941	0.0426864571
0.6729969	0.001572471	0.0427686299
0.6734941	0.001572677	0.04286786
0.6749328	0.001567929	0.0430210147
0.6757368	0.001573503	0.0431382597
0.67616	0.001571852	0.0431597453
0.6759907	0.001573503	0.0432604719
0.6759272	0.001568238	0.0434128584
0.6768582	0.001575981	0.0435833398
0.6768793	0.001578355	0.0436327454
0.6772496	0.00157371	0.0436932833
0.6775987	0.001577529	0.0438020984
0.6771755	0.001584756	0.0438728508
0.6777468	0.001574845	0.0439680314
0.6780113	0.001578252	0.0441350208
0.6790163	0.001577323	0.0442803058
0.6780853	0.001580523	0.044443315
0.6796721	0.001580523	0.0446846876
0.6794817	0.001598176	0.0449804731
0.6804973	0.00158042	0.0451200813
0.6801799	0.001576187	0.0452682288
0.6804761	0.001586098	0.0453985614
0.6803703	0.001576497	0.045526968
0.6809733	0.001572574	0.0456341185
0.6808358	0.001576187	0.0457535083
0.6811955	0.001568754	0.045875451
0.6812378	0.001557812	0.0459507813
0.681661	0.00155265	0.0460822504
0.682338	0.001551618	0.0461226285
0.6826554	0.001548314	0.0461750166
0.6821899	0.001545836	0.0463495476
0.6840201	0.001525396	0.0465188419
0.6839037	0.001510737	0.0466844147
0.6845596	0.001518995	0.0467429278
0.6848769	0.001511253	0.0467361946
0.684475	0.001499278	0.0467985678
0.6843903	0.001502787	0.0468687708
0.6845596	0.001500929	0.0468687014
0.68475	0.001487509	0.0469331688
0.6847817	0.001467894	0.0471026525
0.6856175	0.00143775	0.0473016221
0.685956	0.001404198	0.0474834039
0.685956	0.001375809	0.047644399
0.6868023	0.001347006	0.0478325752
0.6872255	0.001298176	0.0480545563
0.6876063	0.001262251	0.0482072522
0.6876909	0.001220028	0.0483803666
0.6876909	0.001173675	0.0485745078
0.6882622	0.001128768	0.0487468939
0.6897644	0.001077564	0.0489495743
0.6902933	0.001024191	0.0491292913
0.6903356	0.00094501	0.0494190824
0.690653	0.000853441	0.0497349476
0.6911079	0.000783138	0.0500519999
0.6915099	0.000705816	0.0503099202
0.6926736	0.000650585	0.0504891596
0.6927794	0.000606814	0.0507318287
0.6926947	0.000543427	0.0509322042
0.6934564	0.000488197	0.0511141566
0.6929909	0.000402925	0.0514315878
0.6943662	0.000343152	0.0516806006
0.6951702	0.000279456	0.0519572747
0.6947047	0.000198624	0.0522478235
0.6966935	0.000155162	0.0525624616
0.6987035	0.000106538	0.0528604319
0.7002057	8.011e-005	0.0530747221
0.700777	7.6807e-005	0.0533263786
0.701581	5.7708e-005	0.0535986537
0.7017079	3.2519e-005	0.0539735202
0.7033582	3.6648e-005	0.0543831893
0.7034217	3.2209e-005	0.0546642118
0.7039295	2.395e-005	0.0549052056
0.7042892	2.8699e-005	0.0551666872
0.7052413	2.9732e-005	0.055444079
0.7066588	1.6621e-005	0.0556615117
0.7067435	1.9924e-005	0.0559411283
0.7075686	2.2402e-005	0.0562399656
0.7079495	1.8685e-005	0.0565006496
0.7085419	1.5588e-005	0.0567681869
0.7100547	1.8169e-005	0.0570033545
0.7109644	1.755e-005	0.0571612177
0.7115569	1.0943e-005	0.0573820517
0.7117896	1.4143e-005	0.0575905664
0.7130591	1.8995e-005	0.0578761079
0.714117	1.435e-005	0.0581476147
0.7159365	1.2285e-005	0.0583522799
0.7166559	1.786e-005	0.0585075288
0.7175234	1.2698e-005	0.0587138399
0.7183908	1.3524e-005	0.0589308832
0.7193641	1.8273e-005	0.0590984915
0.7200623	1.1046e-005	0.0593096605
0.7210355	1.2698e-005	0.059458675
0.7214798	2.3228e-005	0.0595495365
0.7222204	1.404e-005	0.0595904135
0.7225589	1.2388e-005	0.0596670909
0.7233417	2.6531e-005	0.0597784804
0.7239553	1.6311e-005	0.0599163332
0.7245477	1.3937e-005	0.0599718639
0.7253517	2.4467e-005	0.0600654784
0.725997	1.8066e-005	0.0601075426
0.7265894	1.0736e-005	0.0601080708
0.7272453	1.5588e-005	0.0601515621
0.7277002	1.8169e-005	0.060223411
0.7281022	1.6621e-005	0.0602438989
0.7287687	1.3627e-005	0.0602976742
0.7294881	1.6414e-005	0.0603486351
0.7304613	1.3524e-005	0.0603838966
0.7313076	1.7653e-005	0.0604163544
0.7318789	1.6724e-005	0.0604720051
0.7328521	2.0337e-005	0.0605092113
0.7339947	1.6208e-005	0.0605415597
0.7347352	1.4763e-005	0.0605798037
0.7357719	1.8685e-005	0.0606363214
0.7368298	1.2285e-005	0.0606571988
0.7386705	1.755e-005	0.0607040114
0.7402573	1.8273e-005	0.0607565889
0.7420346	1.6105e-005	0.0607259558
0.7451131	2.044e-005	0.0606794126
0.7466576	1.9821e-005	0.0607197214
0.7474827	1.9511e-005	0.060689019
0.7483502	1.6105e-005	0.060681408
0.7493023	2.106e-005	0.0605877135
0.7510584	1.6311e-005	0.0605253909
0.7520528	8.465e-006	0.0604494311
0.7529203	2.1783e-005	0.0604281055
0.7541263	1.1253e-005	0.0603513588
0.7565594	-9.911e-006	0.0601158311
0.7589714	4.439e-006	0.0598711372
0.7603889	2.9835e-005	0.0595908724
0.7617748	1.8685e-005	0.0593613897
0.7630866	1.6001e-005	0.0592203943
0.7644407	1.1253e-005	0.059039869
0.7665247	8.775e-006	0.0586550974
0.7689261	2.0544e-005	0.058354294
0.7703225	1.435e-005	0.0580590875
0.7719517	7.639e-006	0.0577081608
0.7732634	2.1163e-005	0.0573260329
0.7743848	1.755e-005	0.057085498
0.7750618	8.568e-006	0.0570109654
0.7758658	2.4363e-005	0.0568169736
0.7776008	1.5588e-005	0.0564956424
0.7787116	1.0117e-005	0.0563278153
0.7792299	1.5588e-005	0.0562820698
0.7794627	1.6827e-005	0.0561971439
0.7801926	1.3111e-005	0.0560435996
0.7803724	1.2491e-005	0.0559378364
0.7808696	2.0544e-005	0.0556704592
0.781187	1.2904e-005	0.0554597597
0.7816525	2.1266e-005	0.0551789266
0.7819064	2.0647e-005	0.0549321973
0.7822661	1.6621e-005	0.0546980568
0.7825623	1.755e-005	0.0545622981
0.7825411	1.5485e-005	0.054471706
0.7828162	2.3125e-005	0.0543916673
0.7828162	1.1046e-005	0.0543870895
0.7828162	1.755e-005	0.0543804763
0.7828162	2.2299e-005	0.0545016108
0.7828162	1.373e-005	0.0546587057
0.7828162	1.7756e-005	0.0546961014

