# Spalte1: Wellenlänge [nm]
# Spalte2: Intensität [mV]
335	0.009043
336	0.009401
337	0.009749
338	0.010089
339	0.010420
340	0.010742
341	0.011056
342	0.011363
343	0.011662
344	0.011953
345	0.012239
346	0.012518
347	0.012792
348	0.013061
349	0.013324
350	0.013584
351	0.013838
352	0.014089
353	0.014337
354	0.014581
355	0.014823
356	0.015062
357	0.015300
358	0.015535
359	0.015770
360	0.016004
361	0.016238
362	0.016471
363	0.016706
364	0.016941
365	0.017177
366	0.017416
367	0.017657
368	0.017899
369	0.018144
370	0.018389
371	0.018636
372	0.018883
373	0.019130
374	0.019376
375	0.019621
376	0.019865
377	0.020106
378	0.020344
379	0.020579
380	0.020809
381	0.021035
382	0.021255
383	0.021469
384	0.021676
385	0.021875
386	0.022067
387	0.022250
388	0.022425
389	0.022592
390	0.022751
391	0.022903
392	0.023047
393	0.023185
394	0.023315
395	0.023439
396	0.023557
397	0.023669
398	0.023776
399	0.023877
400	0.023973
401	0.024067
402	0.024164
403	0.024269
404	0.024388
405	0.024525
406	0.024686
407	0.024874
408	0.025091
409	0.025335
410	0.025605
411	0.025901
412	0.026221
413	0.026565
414	0.026932
415	0.027280
416	0.027592
417	0.027915
418	0.028336
419	0.028760
420	0.029184
421	0.029601
422	0.030021
423	0.030505
424	0.030967
425	0.031269
426	0.031479
427	0.031699
428	0.032002
429	0.032247
430	0.032349
431	0.032367
432	0.032314
433	0.032185
434	0.031979
435	0.031784
436	0.031514
437	0.031117
438	0.030662
439	0.030259
440	0.029952
441	0.029782
442	0.029809
443	0.030046
444	0.030512
445	0.031244
446	0.032276
447	0.033634
448	0.035346
449	0.037394
450	0.039766
451	0.042522
452	0.045893
453	0.049705
454	0.053975
455	0.058722
456	0.063940
457	0.069467
458	0.075495
459	0.082020
460	0.089033
461	0.096549
462	0.104605
463	0.113098
464	0.121993
465	0.131242
466	0.140795
467	0.150590
468	0.160612
469	0.170591
470	0.180964
471	0.192327
472	0.204773
473	0.217874
474	0.230529
475	0.243656
476	0.257178
477	0.270722
478	0.283896
479	0.296438
480	0.308410
481	0.321362
482	0.334489
483	0.347193
484	0.359485
485	0.372362
486	0.385829
487	0.399862
488	0.415306
489	0.431994
490	0.448320
491	0.457778
492	0.466190
493	0.480775
494	0.498757
495	0.518490
496	0.538658
497	0.556115
498	0.570293
499	0.582539
500	0.593843
501	0.605373
502	0.618755
503	0.633821
504	0.650231
505	0.668449
506	0.688266
507	0.708746
508	0.727585
509	0.745316
510	0.761251
511	0.775246
512	0.787995
513	0.800731
514	0.812106
515	0.822486
516	0.832744
517	0.843839
518	0.856245
519	0.869432
520	0.882726
521	0.895429
522	0.906133
523	0.914959
524	0.922781
525	0.929782
526	0.936148
527	0.942062
528	0.947635
529	0.953293
530	0.959831
531	0.966119
532	0.970923
533	0.975335
534	0.980323
535	0.986280
536	0.992320
537	0.996971
538	1.001778
539	1.005994
540	1.009532
541	1.012643
542	1.014938
543	1.016038
544	1.018832
545	1.021533
546	1.022780
547	1.022091
548	1.022103
549	1.023031
550	1.023911
551	1.024163
552	1.023361
553	1.021095
554	1.014783
555	1.006550
556	0.996695
557	0.985433
558	0.973568
559	0.965782
560	0.956905
561	0.944187
562	0.929266
563	0.913557
564	0.897095
565	0.877882
566	0.854295
567	0.830832
568	0.806855
569	0.781151
570	0.754038
571	0.726542
572	0.696642
573	0.663791
574	0.627479
575	0.587010
576	0.541490
577	0.494401
578	0.448034
579	0.402620
580	0.358164
581	0.315065
582	0.274316
583	0.236757
584	0.202675
585	0.172593
586	0.146726
587	0.124697
588	0.105947
589	0.090229
590	0.077226
591	0.066452
592	0.057366
593	0.049473
594	0.042553
595	0.036500
596	0.031246
597	0.026728
598	0.022888
599	0.019643
600	0.016941
601	0.014696
602	0.012827
603	0.011265
604	0.009952
605	0.008806
606	0.007779
607	0.006848
608	0.006008
609	0.005259
610	0.004609
611	0.004036
612	0.003530
613	0.003091
614	0.002717
615	0.002403
616	0.002145
617	0.001936
618	0.001774
619	0.001658
620	0.001585
621	0.001549
622	0.001546
623	0.001574
624	0.001630
625	0.001711
626	0.001810
627	0.001922
628	0.002035
629	0.002151
630	0.002276
631	0.002406
632	0.002536
633	0.002658
634	0.002765
635	0.002855
636	0.002933
637	0.003002
638	0.003061
639	0.003107
640	0.003145
641	0.003171
642	0.003189
643	0.003200
644	0.003206
645	0.003208
646	0.003211
647	0.003211
648	0.003201
649	0.003177
650	0.003147
651	0.003119
652	0.003093
653	0.003065
654	0.003033
655	0.003001
656	0.002969
657	0.002938
658	0.002906
659	0.002876
660	0.002850
661	0.002827
662	0.002808
663	0.002797
664	0.002792
665	0.002790
666	0.002786
667	0.002788
668	0.002792
669	0.002798
670	0.002805
671	0.002816
672	0.002827
673	0.002837
674	0.002849
675	0.002863
676	0.002880
677	0.002900
678	0.002921
679	0.002944
680	0.002966
681	0.002987
682	0.003008
683	0.003028
684	0.003048
685	0.003071
686	0.003097
687	0.003124
688	0.003150
689	0.003177
690	0.003202
691	0.003225
692	0.003244
693	0.003260
694	0.003273
695	0.003285
696	0.003296
697	0.003305
698	0.003313
699	0.003323
700	0.003341
701	0.003357
702	0.003361
703	0.003359
704	0.003353
705	0.003342
706	0.003328
707	0.003310
708	0.003289
709	0.003270
710	0.003253
711	0.003232
712	0.003201
713	0.003165
714	0.003124
715	0.003079
716	0.003030
717	0.002977
718	0.002920
719	0.002859
720	0.002795
721	0.002726
722	0.002653
723	0.002577
724	0.002500
725	0.002424
726	0.002344
727	0.002261
728	0.002175
729	0.002085
730	0.001993
731	0.001899
732	0.001804
733	0.001707
734	0.001606
735	0.001497
736	0.001389
737	0.008761
738	0.008700
739	0.008595
740	0.008539
