# Spalte1: Wellenlänge [nm]
# Spalte2: Intensität [mV]
335	0.021805
336	0.022941
337	0.024045
338	0.025128
339	0.026204
340	0.027293
341	0.028407
342	0.029543
343	0.030692
344	0.031843
345	0.032991
346	0.034132
347	0.035263
348	0.036402
349	0.037574
350	0.038811
351	0.040146
352	0.041615
353	0.043256
354	0.045113
355	0.047228
356	0.049650
357	0.052427
358	0.055612
359	0.059259
360	0.063426
361	0.068166
362	0.073538
363	0.079603
364	0.086422
365	0.094060
366	0.102584
367	0.112065
368	0.122576
369	0.134187
370	0.146972
371	0.161009
372	0.176379
373	0.193164
374	0.211450
375	0.231317
376	0.252850
377	0.276132
378	0.301243
379	0.328265
380	0.357275
381	0.388349
382	0.421561
383	0.456981
384	0.494676
385	0.534706
386	0.577130
387	0.621999
388	0.669358
389	0.719251
390	0.771718
391	0.826788
392	0.884404
393	0.944424
394	1.006664
395	1.070924
396	1.137181
397	1.205497
398	1.275947
399	1.348397
400	1.422029
401	1.495993
402	1.569613
403	1.642280
404	1.713438
405	1.782576
406	1.849223
407	1.913066
408	1.974584
409	2.034565
410	2.093602
411	2.151699
412	2.208707
413	2.264434
414	2.318653
415	2.368048
416	2.411961
417	2.455966
418	2.509448
419	2.566016
420	2.627015
421	2.693517
422	2.767100
423	2.853605
424	2.945187
425	3.028344
426	3.109220
427	3.197418
428	3.300887
429	3.407368
430	3.513066
431	3.629656
432	3.763489
433	3.919209
434	4.097992
435	4.299257
436	4.496666
437	4.664170
438	4.792077
439	4.898831
440	4.997128
441	5.076525
442	5.133328
443	5.284793
444	5.410976
445	5.485491
446	5.518871
447	5.520187
448	5.546277
449	5.659309
450	5.828841
451	5.916897
452	6.124877
453	6.401656
454	6.640624
455	6.810692
456	6.933133
457	6.925238
458	7.063868
459	7.320447
460	7.522698
461	7.691948
462	7.869025
463	8.045773
464	8.209474
465	8.327196
466	8.380388
467	8.416677
468	8.478163
469	8.535017
470	8.572172
471	8.595420
472	8.626099
473	8.680067
474	8.664894
475	8.573589
476	8.463800
477	8.380245
478	8.350302
479	8.325024
480	8.151915
481	8.081442
482	7.997643
483	7.919075
484	7.800003
485	7.648134
486	7.538542
487	7.453670
488	7.414477
489	7.375240
490	7.308400
491	7.235106
492	7.121425
493	6.967407
494	6.799082
495	6.631074
496	6.575316
497	6.522016
498	6.442419
499	6.356827
500	6.278007
501	6.201569
502	6.109130
503	6.027705
504	5.964065
505	5.907611
506	5.848716
507	5.783847
508	5.696235
509	5.575391
510	5.425090
511	5.296165
512	5.200903
513	5.139973
514	5.101988
515	5.065485
516	5.014110
517	4.943074
518	4.869325
519	4.808011
520	4.754651
521	4.699605
522	4.634163
523	4.556762
524	4.475551
525	4.407611
526	4.350970
527	4.295756
528	4.223627
529	4.124829
530	4.015642
531	3.919085
532	3.837991
533	3.754363
534	3.672690
535	3.607512
536	3.515682
537	3.412844
538	3.338336
539	3.250061
540	3.156931
541	3.069767
542	2.997268
543	2.939811
544	2.877604
545	2.810771
546	2.766737
547	2.703579
548	2.621895
549	2.552928
550	2.501547
551	2.458166
552	2.411202
553	2.368838
554	2.339077
555	2.294056
556	2.239234
557	2.187855
558	2.135836
559	2.094698
560	2.054500
561	2.002932
562	1.955502
563	1.912793
564	1.855034
565	1.796656
566	1.742608
567	1.688963
568	1.644455
569	1.600182
570	1.547531
571	1.491509
572	1.428130
573	1.356596
574	1.308768
575	1.256798
576	1.178838
577	1.096629
578	1.018291
579	0.939619
580	0.815379
581	0.750249
582	0.671364
583	0.581853
584	0.494696
585	0.415740
586	0.348075
587	0.291391
588	0.244345
589	0.206012
590	0.175292
591	0.150641
592	0.130352
593	0.113294
594	0.098884
595	0.086591
596	0.076022
597	0.066310
598	0.057002
599	0.048337
600	0.040769
601	0.034191
602	0.028623
603	0.024208
604	0.020819
605	0.018120
606	0.015953
607	0.014302
608	0.012908
609	0.011653
610	0.010646
611	0.009846
612	0.009187
613	0.008644
614	0.008222
615	0.007918
616	0.007718
617	0.007578
618	0.007504
619	0.007457
620	0.007440
621	0.007491
622	0.007547
623	0.007608
624	0.007711
625	0.007824
626	0.007926
627	0.008038
628	0.008164
629	0.008302
630	0.008449
631	0.008599
632	0.008743
633	0.008877
634	0.009009
635	0.009144
636	0.009288
637	0.009442
638	0.009585
639	0.009706
640	0.009817
641	0.009916
642	0.010009
643	0.010100
644	0.010185
645	0.010259
646	0.010338
647	0.010415
648	0.010476
649	0.010510
650	0.010534
651	0.010567
652	0.010597
653	0.010612
654	0.010607
655	0.010596
656	0.010581
657	0.010563
658	0.010536
659	0.010503
660	0.010468
661	0.010433
662	0.010399
663	0.010382
664	0.010377
665	0.010373
666	0.010352
667	0.010323
668	0.010291
669	0.010273
670	0.010274
671	0.010298
672	0.010329
673	0.010355
674	0.010387
675	0.010424
676	0.010467
677	0.010518
678	0.010579
679	0.010652
680	0.010733
681	0.010824
682	0.010931
683	0.011045
684	0.011155
685	0.011272
686	0.011393
687	0.011511
688	0.011624
689	0.011740
690	0.011855
691	0.011968
692	0.012072
693	0.012164
694	0.012247
695	0.012318
696	0.012377
697	0.012421
698	0.012450
699	0.012472
700	0.012509
701	0.012526
702	0.012485
703	0.012418
704	0.012344
705	0.012272
706	0.012210
707	0.012163
708	0.012133
709	0.012140
710	0.012187
711	0.012258
712	0.012336
713	0.012447
714	0.012605
715	0.012823
716	0.013116
717	0.013485
718	0.013939
719	0.014484
720	0.015125
721	0.015859
722	0.016673
723	0.017549
724	0.018473
725	0.019427
726	0.020394
727	0.021360
728	0.022312
729	0.023223
730	0.024087
731	0.024887
732	0.025606
733	0.026229
734	0.031606
735	0.032232
736	0.032694
737	0.032961
738	0.033031
739	0.032920
740	0.032647
