# led480nm-1_1-h.dat
# Spalte1: Wellenlänge [nm]
# Spalte2: Intensität
350	0.462121
351	0.478839
352	0.513535
353	0.555918
354	0.608099
355	0.651646
356	0.692351
357	0.721569
358	0.746768
359	0.777794
360	0.816958
361	0.857607
362	0.899672
363	0.939480
364	0.976340
365	1.010193
366	1.044387
367	1.083569
368	1.118415
369	1.148330
370	1.171378
371	1.196052
372	1.218387
373	1.244789
374	1.262872
375	1.279866
376	1.293297
377	1.308835
378	1.318308
379	1.337284
380	1.342894
381	1.353690
382	1.366086
383	1.379046
384	1.380206
385	1.379226
386	1.375961
387	1.367532
388	1.352963
389	1.330209
390	1.303203
391	1.276529
392	1.249157
393	1.219979
394	1.185516
395	1.143965
396	1.106046
397	1.067740
398	1.025183
399	0.986338
400	0.942051
401	0.899961
402	0.858370
403	0.815785
404	0.771717
405	0.730920
406	0.694752
407	0.659233
408	0.626469
409	0.595554
410	0.567238
411	0.541798
412	0.521316
413	0.502574
414	0.484705
415	0.471189
416	0.458548
417	0.447170
418	0.437312
419	0.428794
420	0.421512
421	0.414889
422	0.409213
423	0.404670
424	0.400971
425	0.397817
426	0.395205
427	0.393045
428	0.390782
429	0.388410
430	0.385387
431	0.382518
432	0.379100
433	0.375339
434	0.371069
435	0.365969
436	0.360168
437	0.354064
438	0.347864
439	0.341471
440	0.335668
441	0.329727
442	0.323984
443	0.318279
444	0.312631
445	0.306711
446	0.300469
447	0.293723
448	0.286408
449	0.278779
450	0.270342
451	0.261401
452	0.252089
453	0.242751
454	0.233864
455	0.225060
456	0.216619
457	0.208213
458	0.200108
459	0.192275
460	0.184450
461	0.176377
462	0.168179
463	0.159870
464	0.151244
465	0.142148
466	0.132594
467	0.122586
468	0.112387
469	0.102342
470	0.092520
471	0.083149
472	0.074444
473	0.066491
474	0.059482
475	0.053404
476	0.048071
477	0.043252
478	0.038814
479	0.034636
480	0.030625
481	0.026682
482	0.022834
483	0.019131
484	0.015632
485	0.012444
486	0.009675
487	0.007380
488	0.005585
489	0.004294
490	0.003221
491	0.002147
492	0.001074
493	0.000000
494	0.000000
495	0.000000
496	0.000000
497	0.000000
498	0.000000
499	0.000000
500	0.000000
501	0.000000
502	0.000000
503	0.000000
504	0.000000
505	0.000000
506	0.000000
507	0.000000
508	0.000000
509	0.000000
510	0.000000
511	0.000000
512	0.000000
513	0.000000
514	0.000000
515	0.000000
516	0.000000
517	0.000000
518	0.000000
519	0.000000
520	0.000000
521	0.000000
522	0.000000
523	0.000000
524	0.000000
525	0.000000
526	0.000000
527	0.000000
528	0.000000
529	0.000000
530	0.000000
531	0.000000
532	0.000000
533	0.000000
534	0.000000
535	0.000000
536	0.000000
537	0.000000
538	0.000000
539	0.000000
540	0.000000
541	0.000000
542	0.000000
543	0.000000
544	0.000000
545	0.000000
546	0.000000
547	0.000000
548	0.000000
549	0.000000
550	0.000000
551	0.000000
552	0.000000
553	0.000000
554	0.000000
555	0.000000
556	0.000000
557	0.000000
558	0.000000
559	0.000000
560	0.000000
561	0.000000
562	0.000000
563	0.000000
564	0.000000
565	0.000000
566	0.000000
567	0.000000
568	0.000000
569	0.000000
570	0.000000
571	0.000000
572	0.000000
573	0.000000
574	0.000000
575	0.000000
576	0.000000
577	0.000000
578	0.000000
579	0.000000
580	0.000000
581	0.000000
582	0.000000
583	0.000000
584	0.000000
585	0.000000
586	0.000000
587	0.000000
588	0.000000
589	0.000000
590	0.000000
591	0.000000
592	0.000000
593	0.000000
594	0.000000
595	0.000000
596	0.000000
597	0.000000
598	0.000000
599	0.000000
600	0.000000
601	0.000000
602	0.000000
603	0.000000
604	0.000000
605	0.000000
606	0.000000
607	0.000000
608	0.000000
609	0.000000
610	0.000000
611	0.000000
612	0.000000
613	0.000000
614	0.000000
615	0.000000
616	0.000000
617	0.000000
618	0.000000
619	0.000000
620	0.000000
621	0.000000
622	0.000000
623	0.000000
624	0.000000
625	0.000000
626	0.000000
627	0.000000
628	0.000000
629	0.000000
630	0.000000
631	0.000000
632	0.000000
633	0.000000
634	0.000000
635	0.000000
636	0.000000
637	0.000000
638	0.000000
639	0.000000
640	0.000000
641	0.000000
642	0.000000
643	0.000000
644	0.000000
645	0.000000
646	0.000000
647	0.000000
648	0.000000
649	0.000000
650	0.000000
651	0.000000
652	0.000000
653	0.000000
654	0.000000
655	0.000000
656	0.000000
657	0.000000
658	0.000000
659	0.000000
660	0.000000
661	0.000000
662	0.000000
663	0.000000
664	0.000000
665	0.000000
666	0.000000
667	0.000000
668	0.000000
669	0.000000
670	0.000000
