# absorption spectrum of LED "04_LVT67C"
# column 1: wavelength [nm]
# column 2: intensity in arbitrary units
350.0	0.020718
351.0	0.021277
352.0	0.021845
353.0	0.022427
354.0	0.023018
355.0	0.023617
356.0	0.024236
357.0	0.024867
358.0	0.025505
359.0	0.026152
360.0	0.026809
361.0	0.027474
362.0	0.028147
363.0	0.028735
364.0	0.029327
365.0	0.029928
366.0	0.030546
367.0	0.031223
368.0	0.031915
369.0	0.032623
370.0	0.033348
371.0	0.034086
372.0	0.034840
373.0	0.035605
374.0	0.036382
375.0	0.037169
376.0	0.037979
377.0	0.038807
378.0	0.039639
379.0	0.040475
380.0	0.041325
381.0	0.042188
382.0	0.043047
383.0	0.043900
384.0	0.044735
385.0	0.045493
386.0	0.046238
387.0	0.046971
388.0	0.047727
389.0	0.048463
390.0	0.049170
391.0	0.049844
392.0	0.050493
393.0	0.051114
394.0	0.051822
395.0	0.052498
396.0	0.053123
397.0	0.053932
398.0	0.054741
399.0	0.055549
400.0	0.056358
401.0	0.057167
402.0	0.057976
403.0	0.058784
404.0	0.059593
405.0	0.060402
406.0	0.061211
407.0	0.062019
408.0	0.062828
409.0	0.063637
410.0	0.064445
411.0	0.065254
412.0	0.066063
413.0	0.066872
414.0	0.067680
415.0	0.068489
416.0	0.069298
417.0	0.070107
418.0	0.070915
419.0	0.071724
420.0	0.072533
421.0	0.073341
422.0	0.074150
423.0	0.074959
424.0	0.075768
425.0	0.076576
426.0	0.077385
427.0	0.078194
428.0	0.079003
429.0	0.079808
430.0	0.080246
431.0	0.080501
432.0	0.080565
433.0	0.080339
434.0	0.079810
435.0	0.079226
436.0	0.078374
437.0	0.077095
438.0	0.075452
439.0	0.073618
440.0	0.071703
441.0	0.069763
442.0	0.067903
443.0	0.066112
444.0	0.064339
445.0	0.062612
446.0	0.060958
447.0	0.059406
448.0	0.057889
449.0	0.056431
450.0	0.054952
451.0	0.053515
452.0	0.052406
453.0	0.051350
454.0	0.050361
455.0	0.049473
456.0	0.048660
457.0	0.047815
458.0	0.047096
459.0	0.046474
460.0	0.045898
461.0	0.045333
462.0	0.044767
463.0	0.044129
464.0	0.043394
465.0	0.042570
466.0	0.041685
467.0	0.040765
468.0	0.039836
469.0	0.038833
470.0	0.037857
471.0	0.036996
472.0	0.036206
473.0	0.035374
474.0	0.034329
475.0	0.033264
476.0	0.032223
477.0	0.031232
478.0	0.030294
479.0	0.029407
480.0	0.028565
481.0	0.027879
482.0	0.027249
483.0	0.026601
484.0	0.025907
485.0	0.025221
486.0	0.024534
487.0	0.023833
488.0	0.023171
489.0	0.022539
490.0	0.021891
491.0	0.021163
492.0	0.020453
493.0	0.019769
494.0	0.019117
495.0	0.018516
496.0	0.017978
497.0	0.017476
498.0	0.017002
499.0	0.016538
500.0	0.016069
501.0	0.015589
502.0	0.015112
503.0	0.014638
504.0	0.014174
505.0	0.013736
506.0	0.013325
507.0	0.012931
508.0	0.012529
509.0	0.012147
510.0	0.011784
511.0	0.011435
512.0	0.011104
513.0	0.010802
514.0	0.010503
515.0	0.010206
516.0	0.009915
517.0	0.009623
518.0	0.009331
519.0	0.009040
520.0	0.008748
521.0	0.008456
522.0	0.008165
523.0	0.007874
524.0	0.007582
525.0	0.007290
526.0	0.006998
527.0	0.006707
528.0	0.006415
529.0	0.006124
530.0	0.005832
531.0	0.005540
532.0	0.005249
533.0	0.004957
534.0	0.004666
535.0	0.004374
536.0	0.004082
537.0	0.003791
538.0	0.003499
539.0	0.003208
540.0	0.002916
541.0	0.002625
542.0	0.002333
543.0	0.002041
544.0	0.001750
545.0	0.001458
546.0	0.001167
547.0	0.000875
548.0	0.000583
549.0	0.000291
550.0	0.000000
551.0	0.000000
552.0	0.000000
553.0	0.000000
554.0	0.000000
555.0	0.000000
556.0	0.000000
557.0	0.000000
558.0	0.000000
559.0	0.000000
560.0	0.000000
561.0	0.000000
562.0	0.000000
563.0	0.000000
564.0	0.000000
565.0	0.000000
566.0	0.000000
567.0	0.000000
568.0	0.000000
569.0	0.000000
570.0	0.000000
571.0	0.000000
572.0	0.000000
573.0	0.000000
574.0	0.000000
575.0	0.000000
576.0	0.000000
577.0	0.000000
578.0	0.000000
579.0	0.000000
580.0	0.000000
581.0	0.000000
582.0	0.000000
583.0	0.000000
584.0	0.000000
585.0	0.000000
586.0	0.000000
587.0	0.000000
588.0	0.000000
589.0	0.000000
590.0	0.000000
591.0	0.000000
592.0	0.000000
593.0	0.000000
594.0	0.000000
595.0	0.000000
596.0	0.000000
597.0	0.000000
598.0	0.000000
599.0	0.000000
600.0	0.000000
601.0	0.000000
602.0	0.000000
603.0	0.000000
604.0	0.000000
605.0	0.000000
606.0	0.000000
607.0	0.000000
608.0	0.000000
609.0	0.000000
610.0	0.000000
611.0	0.000000
612.0	0.000000
613.0	0.000000
614.0	0.000000
615.0	0.000000
616.0	0.000000
617.0	0.000000
618.0	0.000000
619.0	0.000000
620.0	0.000000
621.0	0.000000
622.0	0.000000
623.0	0.000000
624.0	0.000000
625.0	0.000000
626.0	0.000000
627.0	0.000000
628.0	0.000000
629.0	0.000000
630.0	0.000000
631.0	0.000000
632.0	0.000000
633.0	0.000000
634.0	0.000000
635.0	0.000000
636.0	0.000000
637.0	0.000000
638.0	0.000000
639.0	0.000000
640.0	0.000000
641.0	0.000000
642.0	0.000000
643.0	0.000000
644.0	0.000000
645.0	0.000000
646.0	0.000000
647.0	0.000000
648.0	0.000000
649.0	0.000000
650.0	0.000000
651.0	0.000000
652.0	0.000000
653.0	0.000000
654.0	0.000000
655.0	0.000000
656.0	0.000000
657.0	0.000000
658.0	0.000000
659.0	0.000000
660.0	0.000000
661.0	0.000000
662.0	0.000000
663.0	0.000000
664.0	0.000000
665.0	0.000000
666.0	0.000000
667.0	0.000000
668.0	0.000000
669.0	0.000000
670.0	0.000000
671.0	0.000000
672.0	0.000000
673.0	0.000000
674.0	0.000000
675.0	0.000000
676.0	0.000000
677.0	0.000000
678.0	0.000000
679.0	0.000000
680.0	0.000000
681.0	0.000000
682.0	0.000000
683.0	0.000000
684.0	0.000000
685.0	0.000000
686.0	0.000000
687.0	0.000000
688.0	0.000000
689.0	0.000000
690.0	0.000000
691.0	0.000000
692.0	0.000000
693.0	0.000000
694.0	0.000000
695.0	0.000000
696.0	0.000000
697.0	0.000000
698.0	0.000000
699.0	0.000000
700.0	0.000000
701.0	0.000000
702.0	0.000000
703.0	0.000000
704.0	0.000000
705.0	0.000000
706.0	0.000000
707.0	0.000000
708.0	0.000000
709.0	0.000000
710.0	0.000000
711.0	0.000000
712.0	0.000000
713.0	0.000000
714.0	0.000000
715.0	0.000000
716.0	0.000000
717.0	0.000000
718.0	0.000000
719.0	0.000000
720.0	0.000000
721.0	0.000000
722.0	0.000000
723.0	0.000000
724.0	0.000000
725.0	0.000000
726.0	0.000000
727.0	0.000000
728.0	0.000000
729.0	0.000000
730.0	0.000000
731.0	0.000000
732.0	0.000000
733.0	0.000000
734.0	0.000000
735.0	0.000000
736.0	0.000000
737.0	0.000000
738.0	0.000000
739.0	0.000000
740.0	0.000000
741.0	0.000000
742.0	0.000000
743.0	0.000000
744.0	0.000000
745.0	0.000000
746.0	0.000000
747.0	0.000000
748.0	0.000000
749.0	0.000000
750.0	0.000000