# Kalibrationsspektrum der weißen LED
# 
# Rauschoffset scheint in Daten vorhanden zu sein
# 
# Spalte1: Pixelnummer
# Spalte2: Wellenlänge
# Spalte3: Intensität [dig]
1	185.22	73
2	186.06	69
3	186.89	68
4	187.73	71
5	188.56	70
6	189.4	74
7	190.24	67
8	191.07	72
9	191.91	71
10	192.74	75
11	193.58	71
12	194.41	73
13	195.25	69
14	196.08	71
15	196.92	69
16	197.75	72
17	198.59	68
18	199.43	74
19	200.26	71
20	201.1	74
21	201.93	71
22	202.77	71
23	203.6	71
24	204.44	70
25	205.27	70
26	206.11	72
27	206.95	71
28	207.78	75
29	208.62	73
30	209.45	74
31	210.29	70
32	211.12	73
33	211.96	74
34	212.79	75
35	213.63	69
36	214.47	73
37	215.3	71
38	216.14	74
39	216.97	71
40	217.81	75
41	218.64	72
42	219.48	74
43	220.32	71
44	221.15	73
45	221.99	73
46	222.82	73
47	223.66	71
48	224.49	73
49	225.33	69
50	226.17	72
51	227	71
52	227.84	72
53	228.67	70
54	229.51	71
55	230.34	67
56	231.18	73
57	232.02	71
58	232.85	73
59	233.69	70
60	234.52	73
61	235.36	71
62	236.19	71
63	237.03	70
64	237.87	73
65	238.7	69
66	239.54	74
67	240.37	74
68	241.21	69
69	242.04	71
70	242.88	74
71	243.72	70
72	244.55	75
73	245.39	71
74	246.22	74
75	247.06	71
76	247.89	71
77	248.73	72
78	249.57	73
79	250.4	72
80	251.24	71
81	252.07	71
82	252.91	71
83	253.74	70
84	254.58	74
85	255.42	73
86	256.25	72
87	257.09	69
88	257.92	73
89	258.76	73
90	259.6	73
91	260.43	73
92	261.27	73
93	262.1	69
94	262.94	74
95	263.77	71
96	264.61	74
97	265.45	70
98	266.28	71
99	267.12	71
100	267.95	71
101	268.79	72
102	269.62	73
103	270.46	71
104	271.3	74
105	272.13	72
106	272.97	75
107	273.8	72
108	274.64	74
109	275.47	75
110	276.31	72
111	277.15	71
112	277.98	73
113	278.82	70
114	279.65	75
115	280.49	73
116	281.32	75
117	282.16	72
118	282.99	77
119	283.83	70
120	284.67	74
121	285.5	74
122	286.34	73
123	287.17	72
124	288.01	73
125	288.84	72
126	289.68	74
127	290.52	70
128	291.35	71
129	292.19	69
130	293.02	69
131	293.86	71
132	294.69	74
133	295.53	68
134	296.36	71
135	297.2	71
136	298.04	71
137	298.87	70
138	299.71	73
139	300.54	70
140	301.38	74
141	302.21	70
142	303.05	76
143	303.88	74
144	304.72	73
145	305.55	70
146	306.39	73
147	307.23	70
148	308.06	71
149	308.9	71
150	309.73	72
151	310.57	72
152	311.4	71
153	312.24	71
154	313.07	71
155	313.91	68
156	314.74	74
157	315.58	70
158	316.41	71
159	317.25	72
160	318.08	69
161	318.92	72
162	319.76	72
163	320.59	69
164	321.43	73
165	322.26	70
166	323.1	73
167	323.93	72
168	324.77	74
169	325.6	73
170	326.44	74
171	327.27	73
172	328.11	73
173	328.94	70
174	329.78	74
175	330.61	73
176	331.45	71
177	332.28	70
178	333.12	76
179	333.95	71
180	334.79	71
181	335.62	71
182	336.46	73
183	337.29	67
184	338.13	74
185	338.96	71
186	339.8	72
187	340.63	68
188	341.47	72
189	342.3	72
190	343.14	74
191	343.97	71
192	344.81	75
193	345.64	69
194	346.48	71
195	347.31	73
196	348.15	71
197	348.98	74
198	349.82	70
199	350.65	69
200	351.49	71
201	352.32	76
202	353.15	74
203	353.99	70
204	354.82	71
205	355.66	70
206	356.49	73
207	357.33	71
208	358.16	70
209	359	69
210	359.83	69
211	360.67	69
212	361.5	73
213	362.34	71
214	363.17	75
215	364	71
216	364.84	75
217	365.67	76
218	366.51	73
219	367.34	72
220	368.18	75
221	369.01	71
222	369.84	76
223	370.68	74
224	371.51	74
225	372.35	73
226	373.18	74
227	374.02	72
228	374.85	74
229	375.68	74
230	376.52	74
231	377.35	74
232	378.19	75
233	379.02	70
234	379.86	74
235	380.69	71
236	381.52	78
237	382.36	69
238	383.19	77
239	384.03	75
240	384.86	75
241	385.69	76
242	386.53	75
243	387.36	77
244	388.19	77
245	389.03	72
246	389.86	75
247	390.7	77
248	391.53	78
249	392.36	74
250	393.2	81
251	394.03	75
252	394.86	78
253	395.7	75
254	396.53	77
255	397.37	76
256	398.2	75
257	399.03	79
258	399.87	79
259	400.7	75
260	401.53	81
261	402.37	80
262	403.2	85
263	404.03	86
264	404.87	90
265	405.7	88
266	406.53	89
267	407.37	85
268	408.2	92
269	409.03	92
270	409.87	97
271	410.7	101
272	411.53	104
273	412.37	107
274	413.2	115
275	414.03	124
276	414.87	135
277	415.7	148
278	416.53	161
279	417.36	181
280	418.2	203
281	419.03	226
282	419.86	260
283	420.7	299
284	421.53	344
285	422.36	401
286	423.19	466
287	424.03	541
288	424.86	634
289	425.69	743
290	426.53	867
291	427.36	1015
292	428.19	1189
293	429.02	1387
294	429.86	1617
295	430.69	1882
296	431.52	2191
297	432.35	2538
298	433.19	2939
299	434.02	3395
300	434.85	3926
301	435.68	4513
302	436.51	5185
303	437.35	5931
304	438.18	6780
305	439.01	7729
306	439.84	8792
307	440.68	9955
308	441.51	11226
309	442.34	12600
310	443.17	14046
311	444	15494
312	444.84	16976
313	445.67	18429
314	446.5	19759
315	447.33	20962
316	448.16	21960
317	449	22737
318	449.83	23274
319	450.66	23517
320	451.49	23458
321	452.32	23213
322	453.15	22649
323	453.99	21912
324	454.82	21008
325	455.65	19989
326	456.48	18906
327	457.31	17864
328	458.14	16788
329	458.97	15789
330	459.81	14839
331	460.64	13931
332	461.47	13102
333	462.3	12337
334	463.13	11603
335	463.96	10928
336	464.79	10277
337	465.62	9668
338	466.46	9063
339	467.29	8486
340	468.12	7930
341	468.95	7406
342	469.78	6894
343	470.61	6418
344	471.44	5975
345	472.27	5557
346	473.1	5171
347	473.93	4817
348	474.77	4499
349	475.6	4209
350	476.43	3952
351	477.26	3715
352	478.09	3506
353	478.92	3324
354	479.75	3159
355	480.58	3008
356	481.41	2875
357	482.24	2753
358	483.07	2647
359	483.9	2550
360	484.73	2467
361	485.56	2393
362	486.39	2322
363	487.22	2263
364	488.05	2212
365	488.88	2171
366	489.71	2137
367	490.54	2112
368	491.37	2099
369	492.2	2087
370	493.03	2087
371	493.86	2091
372	494.69	2101
373	495.52	2118
374	496.35	2133
375	497.18	2162
376	498.01	2193
377	498.84	2230
378	499.67	2269
379	500.5	2306
380	501.33	2352
381	502.16	2396
382	502.99	2443
383	503.82	2486
384	504.65	2554
385	505.48	2602
386	506.3	2659
387	507.13	2713
388	507.96	2769
389	508.79	2838
390	509.62	2897
391	510.45	2953
392	511.28	3017
393	512.11	3083
394	512.94	3148
395	513.77	3216
396	514.59	3279
397	515.42	3347
398	516.25	3419
399	517.08	3489
400	517.91	3555
401	518.74	3634
402	519.57	3712
403	520.4	3776
404	521.22	3852
405	522.05	3922
406	522.88	3999
407	523.71	4076
408	524.54	4154
409	525.37	4231
410	526.19	4311
411	527.02	4399
412	527.85	4485
413	528.68	4571
414	529.51	4668
415	530.33	4754
416	531.16	4841
417	531.99	4931
418	532.82	5035
419	533.65	5125
420	534.47	5218
421	535.3	5326
422	536.13	5416
423	536.96	5507
424	537.78	5601
425	538.61	5700
426	539.44	5797
427	540.27	5904
428	541.09	6003
429	541.92	6095
430	542.75	6193
431	543.57	6285
432	544.4	6385
433	545.23	6487
434	546.06	6575
435	546.88	6673
436	547.71	6768
437	548.54	6848
438	549.36	6935
439	550.19	7016
440	551.02	7093
441	551.84	7187
442	552.67	7255
443	553.5	7330
444	554.32	7403
445	555.15	7473
446	555.98	7548
447	556.8	7613
448	557.63	7649
449	558.46	7684
450	559.28	7728
451	560.11	7742
452	560.93	7715
453	561.76	7640
454	562.59	7541
455	563.41	7471
456	564.24	7461
457	565.06	7522
458	565.89	7642
459	566.72	7764
460	567.54	7913
461	568.37	8077
462	569.19	8197
463	570.02	8253
464	570.84	8202
465	571.67	8116
466	572.5	8019
467	573.32	7939
468	574.15	7844
469	574.97	7740
470	575.8	7644
471	576.62	7532
472	577.45	7436
473	578.27	7318
474	579.1	7210
475	579.92	7097
476	580.75	6981
477	581.57	6855
478	582.4	6728
479	583.22	6594
480	584.05	6464
481	584.87	6342
482	585.7	6216
483	586.52	6093
484	587.34	5976
485	588.17	5874
486	588.99	5755
487	589.82	5653
488	590.64	5545
489	591.47	5445
490	592.29	5354
491	593.11	5254
492	593.94	5154
493	594.76	5062
494	595.59	4965
495	596.41	4876
496	597.23	4793
497	598.06	4694
498	598.88	4616
499	599.7	4541
500	600.53	4457
501	601.35	4377
502	602.17	4290
503	603	4212
504	603.82	4121
505	604.64	4040
506	605.47	3950
507	606.29	3870
508	607.11	3792
509	607.94	3698
510	608.76	3617
511	609.58	3534
512	610.41	3449
513	611.23	3370
514	612.05	3294
515	612.87	3211
516	613.7	3134
517	614.52	3062
518	615.34	2981
519	616.16	2906
520	616.99	2830
521	617.81	2762
522	618.63	2690
523	619.45	2616
524	620.28	2551
525	621.1	2482
526	621.92	2416
527	622.74	2347
528	623.56	2287
529	624.38	2226
530	625.21	2169
531	626.03	2111
532	626.85	2055
533	627.67	1992
534	628.49	1936
535	629.31	1889
536	630.14	1841
537	630.96	1788
538	631.78	1741
539	632.6	1691
540	633.42	1648
541	634.24	1599
542	635.06	1554
543	635.88	1511
544	636.7	1474
545	637.53	1431
546	638.35	1389
547	639.17	1347
548	639.99	1310
549	640.81	1273
550	641.63	1239
551	642.45	1199
552	643.27	1164
553	644.09	1132
554	644.91	1102
555	645.73	1065
556	646.55	1040
557	647.37	1006
558	648.19	977
559	649.01	951
560	649.83	919
561	650.65	892
562	651.47	867
563	652.29	842
564	653.11	818
565	653.93	793
566	654.75	774
567	655.57	753
568	656.39	732
569	657.21	709
570	658.02	693
571	658.84	672
572	659.66	653
573	660.48	636
574	661.3	622
575	662.12	601
576	662.94	588
577	663.76	570
578	664.58	561
579	665.39	547
580	666.21	534
581	667.03	515
582	667.85	506
583	668.67	492
584	669.49	481
585	670.3	467
586	671.12	458
587	671.94	447
588	672.76	438
589	673.58	430
590	674.39	417
591	675.21	409
592	676.03	402
593	676.85	391
594	677.66	384
595	678.48	375
596	679.3	367
597	680.12	358
598	680.93	348
599	681.75	340
600	682.57	333
601	683.38	322
602	684.2	317
603	685.02	310
604	685.83	305
605	686.65	298
606	687.47	295
607	688.28	286
608	689.1	278
609	689.92	275
610	690.73	267
611	691.55	260
612	692.37	256
613	693.18	250
614	694	246
615	694.81	239
616	695.63	235
617	696.45	229
618	697.26	227
619	698.08	224
620	698.89	218
621	699.71	215
622	700.52	207
623	701.34	205
624	702.16	200
625	702.97	200
626	703.79	197
627	704.6	192
628	705.42	186
629	706.23	183
630	707.05	182
631	707.86	178
632	708.68	176
633	709.49	171
634	710.3	169
635	711.12	166
636	711.93	166
637	712.75	160
638	713.56	160
639	714.38	159
640	715.19	156
641	716	153
642	716.82	151
643	717.63	148
644	718.45	145
645	719.26	141
646	720.07	140
647	720.89	138
648	721.7	137
649	722.51	137
650	723.33	132
651	724.14	133
652	724.95	128
653	725.77	128
654	726.58	127
655	727.39	123
656	728.21	121
657	729.02	119
658	729.83	121
659	730.64	115
660	731.46	115
661	732.27	113
662	733.08	112
663	733.89	111
664	734.71	111
665	735.52	107
666	736.33	108
667	737.14	110
668	737.95	107
669	738.77	104
670	739.58	104
671	740.39	104
672	741.2	102
673	742.01	99
674	742.82	100
675	743.63	97
676	744.45	98
677	745.26	93
678	746.07	97
679	746.88	96
680	747.69	96
681	748.5	93
682	749.31	94
683	750.12	92
684	750.93	92
685	751.74	91
686	752.55	91
687	753.36	89
688	754.17	85
689	754.98	87
690	755.8	83
691	756.61	88
692	757.42	87
693	758.22	86
694	759.03	86
695	759.84	78
696	760.65	85
697	761.46	83
698	762.27	82
699	763.08	85
700	763.89	83
701	764.7	81
702	765.51	82
703	766.32	79
704	767.13	81
705	767.94	79
706	768.75	81
707	769.55	80
708	770.36	77
709	771.17	77
710	771.98	76
711	772.79	75
712	773.6	77
713	774.4	75
714	775.21	75
715	776.02	77
716	776.83	75
717	777.64	75
718	778.44	74
719	779.25	74
720	780.06	77
721	780.87	78
722	781.67	73
723	782.48	74
724	783.29	74
725	784.09	75
726	784.9	74
727	785.71	70
728	786.52	72
729	787.32	72
730	788.13	74
731	788.94	73
732	789.74	73
733	790.55	70
734	791.35	74
735	792.16	72
736	792.97	72
737	793.77	69
738	794.58	73
739	795.38	71
740	796.19	73
741	797	72
742	797.8	75
743	798.61	72
744	799.41	73
745	800.22	72
746	801.02	71
747	801.83	70
748	802.63	74
749	803.44	72
750	804.24	69
751	805.05	69
752	805.85	71
753	806.66	69
754	807.46	71
755	808.27	69
756	809.07	71
757	809.87	66
758	810.68	71
759	811.48	68
760	812.29	70
761	813.09	68
762	813.89	68
763	814.7	66
764	815.5	69
765	816.3	72
766	817.11	67
767	817.91	66
768	818.71	69
769	819.52	71
770	820.32	70
771	821.12	67
772	821.93	67
773	822.73	68
774	823.53	68
775	824.33	68
776	825.14	67
777	825.94	70
778	826.74	67
779	827.54	68
780	828.34	69
781	829.15	67
782	829.95	70
783	830.75	66
784	831.55	69
785	832.35	71
786	833.15	69
787	833.96	65
788	834.76	66
789	835.56	66
790	836.36	67
791	837.16	67
792	837.96	66
793	838.76	67
794	839.56	67
795	840.36	64
796	841.16	67
797	841.96	66
798	842.76	69
799	843.56	66
800	844.36	67
801	845.16	67
802	845.96	67
803	846.76	65
804	847.56	67
805	848.36	67
806	849.16	67
807	849.96	68
808	850.76	67
809	851.56	67
810	852.36	70
811	853.16	68
812	853.96	69
813	854.76	68
814	855.55	67
815	856.35	66
816	857.15	66
817	857.95	69
818	858.75	66
819	859.55	66
820	860.34	66
821	861.14	67
822	861.94	65
823	862.74	69
824	863.53	66
825	864.33	66
826	865.13	69
827	865.93	66
828	866.72	68
829	867.52	66
830	868.32	66
831	869.12	67
832	869.91	70
833	870.71	68
834	871.51	66
835	872.3	66
836	873.1	69
837	873.9	65
838	874.69	68
839	875.49	67
840	876.28	69
841	877.08	69
842	877.88	66
843	878.67	65
844	879.47	66
845	880.26	66
846	881.06	66
847	881.85	64
848	882.65	66
849	883.44	66
850	884.24	65
851	885.03	65
852	885.83	66
853	886.62	68
854	887.42	66
855	888.21	68
856	889	67
857	889.8	65
858	890.59	67
859	891.39	66
860	892.18	66
861	892.97	65
862	893.77	66
863	894.56	64
864	895.36	64
865	896.15	64
866	896.94	67
867	897.74	65
868	898.53	65
869	899.32	67
870	900.11	66
871	900.91	65
872	901.7	66
873	902.49	66
874	903.28	67
875	904.08	67
876	904.87	67
877	905.66	66
878	906.45	65
879	907.24	65
880	908.04	66
881	908.83	65
882	909.62	62
883	910.41	68
884	911.2	68
885	911.99	67
886	912.78	63
887	913.57	66
888	914.37	62
889	915.16	63
890	915.95	66
891	916.74	67
892	917.53	67
893	918.32	67
894	919.11	66
895	919.9	63
896	920.69	65
897	921.48	66
898	922.27	65
899	923.06	66
900	923.85	66
901	924.64	67
902	925.43	67
903	926.21	67
904	927	67
905	927.79	65
906	928.58	65
907	929.37	66
908	930.16	64
909	930.95	66
910	931.74	65
911	932.52	64
912	933.31	66
913	934.1	67
914	934.89	67
915	935.68	64
916	936.46	67
917	937.25	66
918	938.04	69
919	938.83	64
920	939.61	66
921	940.4	66
922	941.19	63
923	941.97	64
924	942.76	66
925	943.55	66
926	944.33	66
927	945.12	64
928	945.91	63
929	946.69	66
930	947.48	64
931	948.26	62
932	949.05	65
933	949.84	65
934	950.62	62
935	951.41	65
936	952.19	66
937	952.98	65
938	953.76	66
939	954.55	67
940	955.33	61
941	956.12	65
942	956.9	66
943	957.69	65
944	958.47	66
945	959.26	64
946	960.04	64
947	960.82	66
948	961.61	65
949	962.39	66
950	963.18	64
951	963.96	66
952	964.74	65
953	965.53	64
954	966.31	66
955	967.09	63
956	967.88	62
957	968.66	64
958	969.44	65
959	970.22	62
960	971.01	64
961	971.79	66
962	972.57	62
963	973.35	65
964	974.13	67
965	974.92	64
966	975.7	64
967	976.48	63
968	977.26	64
969	978.04	65
970	978.82	64
971	979.61	64
972	980.39	64
973	981.17	64
974	981.95	65
975	982.73	67
976	983.51	65
977	984.29	64
978	985.07	67
979	985.85	60
980	986.63	64
981	987.41	64
982	988.19	64
983	988.97	65
984	989.75	64
985	990.53	64
986	991.31	64
987	992.09	66
988	992.87	67
989	993.65	66
990	994.42	65
991	995.2	67
992	995.98	64
993	996.76	64
994	997.54	67
995	998.32	66
996	999.09	66
997	999.87	60
998	1000.65	68
999	1001.43	65
1000	1002.21	67
1001	1002.98	66
1002	1003.76	64
1003	1004.54	65
1004	1005.31	66
1005	1006.09	67
1006	1006.87	67
1007	1007.64	62
1008	1008.42	68
1009	1009.2	66
1010	1009.97	67
1011	1010.75	66
1012	1011.53	66
1013	1012.3	68
1014	1013.08	65
1015	1013.85	67
1016	1014.63	67
1017	1015.4	67
1018	1016.18	70
1019	1016.95	69
1020	1017.73	70
1021	1018.5	70
1022	1019.28	69
1023	1020.05	69
1024	1020.83	70

