#zeit : 	zahl d. Durchgänge :	drehung in grad : error fehlt noch
	
		
15.56	0	0
15.58	0	0
15.6	0	0
15.62	0	0
15.64	0	0
15.66	0	0
15.68	0	0
15.7	0	0
15.72	0	0
15.74	0	0
15.76	0	0
15.78	0	0
15.8	0	0
15.82	0	0
15.84	0	0
15.86	0	0
15.88	0	0
15.9	0	0
15.92	0	0
15.94	0	0
15.96	0	0
15.98	0	0
16	0	0
16.02	0	0
16.04	0	0
16.06	0	0
16.08	0	0
16.1	0	0
16.12	0	0
16.14	0	0
16.16	0	0
16.18	0	0
16.2	0	0
16.22	0	0
16.24	0	0
16.26	0	0
16.28	0	0
16.3	0	0
16.32	0	0
16.34	0	0
16.36	0	0
16.38	0	0
16.4	0	0
16.42	0	0
16.44	0	0
16.46	0	0
16.48	0	0
16.5	0	0
16.52	0	0
16.54	0	0
16.56	0	0
16.58	0	0
16.6	0	0
16.62	0	0
16.64	0	0
16.66	0	0
16.68	0	0
16.7	0	0
16.72	0	0
16.74	0	0
16.76	0	0
16.78	0	0
16.8	0	0
16.82	0	0
16.84	0	0
16.86	0	0
16.88	0	0
16.9	0	0
16.92	0	0
16.94	0	0
16.96	0	0
16.98	0	0
17	0	0
17.02	0	0
17.04	0	0
17.061	0	0
17.08	0	0
17.1	0	0
17.12	0	0
17.14	0	0
17.16	0	0
17.18	0	0
17.2	0	0
17.22	0	0
17.24	0	0
17.261	0	0
17.28	0	0
17.3	0	0
17.32	0	0
17.34	0	0
17.36	0	0
17.38	0	0
17.4	0	0
17.42	0	0
17.44	0	0
17.46	0	0
17.48	0	0
17.5	0	0
17.52	0	0
17.54	0	0
17.56	0	0
17.58	0	0
17.6	0	0
17.62	1	10
17.64	1	10
17.66	1	10
17.68	2	20
17.7	2	20
17.72	2	20
17.74	3	30
17.76	3	30
17.78	3	30
17.8	4	40
17.82	4	40
17.84	4	40
17.861	4	40
17.88	4	40
17.9	4	40
17.92	4	40
17.94	4	40
17.961	4	40
17.98	4	40
18	4	40
18.02	4	40
18.04	4	40
18.06	4	40
18.08	4	40
18.1	4	40
18.12	4	40
18.14	4	40
18.16	5	50
18.18	5	50
18.2	5	50
18.22	5	50
18.24	5	50
18.261	6	60
18.28	6	60
18.3	6	60
18.32	7	70
18.34	7	70
18.361	7	70
18.39	8	80
18.405	8	80
18.422	8	80
18.44	8	80
18.461	9	90
18.48	9	90
18.5	9	90
18.52	10	100
18.54	10	100
18.561	10	100
18.58	10	100
18.6	10	100
18.62	11	110
18.64	11	110
18.661	11	110
18.68	11	110
18.7	12	120
18.72	12	120
18.74	12	120
18.761	13	130
18.78	13	130
18.8	13	130
18.82	14	140
18.84	14	140
18.86	14	140
18.88	14	140
18.9	15	150
18.92	15	150
18.94	15	150
18.96	15	150
18.98	15	150
19	16	160
19.02	16	160
19.04	16	160
19.06	16	160
19.08	16	160
19.1	16	160
19.12	16	160
19.14	17	170
19.16	17	170
19.18	17	170
19.2	17	170
19.22	17	170
19.24	17	170
19.26	17	170
19.28	17	170
19.3	17	170
19.32	17	170
19.34	17	170
19.36	17	170
19.38	17	170
19.4	17	170
19.42	17	170
19.44	17	170
19.46	18	180
19.48	18	180
19.5	18	180
19.52	18	180
19.54	18	180
19.56	18	180
19.58	18	180
19.6	18	180
19.62	18	180
19.64	18	180
19.661	18	180
19.68	18	180
19.7	18	180
19.72	18	180
19.74	18	180
19.76	18	180
19.78	18	180
19.8	18	180
19.82	18	180
19.84	18	180
19.86	18	180
19.88	18	180
19.9	18	180
19.92	18	180
19.94	18	180
19.96	18	180
19.98	18	180
20	19	190
20.02	19	190
20.041	19	190
20.06	19	190
20.08	19	190
20.1	19	190
20.12	19	190
20.14	19	190
20.16	19	190
20.18	20	200
20.2	20	200
20.22	20	200
20.24	20	200
20.26	20	200
20.28	20	200
20.3	20	200
20.32	20	200
20.34	20	200
20.36	20	200
20.38	20	200
20.4	21	210
20.42	21	210
20.44	21	210
20.46	21	210
20.48	21	210
20.5	22	220
20.52	22	220
20.54	22	220
20.56	22	220
20.58	23	230
20.6	23	230
20.62	23	230
20.64	23	230
20.661	24	240
20.68	24	240
20.7	24	240
20.72	25	250
20.74	25	250
20.76	25	250
20.78	26	260
20.8	26	260
20.82	26	260
20.84	26	260
20.86	27	270
20.88	27	270
20.9	27	270
20.92	28	280
20.94	28	280
20.96	28	280
20.98	29	290
21	29	290
21.02	29	290
21.04	30	300
21.06	30	300
21.08	30	300
21.1	30	300
21.12	31	310
21.14	31	310
21.16	31	310
21.18	32	320
21.2	32	320
21.22	32	320
21.24	33	330
21.26	33	330
21.28	33	330
21.3	34	340
21.32	34	340
21.34	34	340
21.36	35	350
21.38	35	350
21.4	35	350
21.42	36	360
21.44	36	360
21.46	36	360
21.48	37	370
21.5	37	370
21.52	37	370
21.54	38	380
21.56	38	380
21.58	39	390
21.6	39	390
21.62	39	390
21.64	40	400
21.661	40	400
21.68	41	410
21.7	41	410
21.72	42	420
21.74	42	420
21.761	42	420
21.78	43	430
21.8	43	430
21.82	44	440
21.84	44	440
21.86	45	450
21.88	45	450
21.9	46	460
21.92	46	460
21.94	46	460
21.96	47	470
21.98	47	470
22	48	480
22.02	48	480
22.04	49	490
22.06	49	490
22.08	50	500
22.1	50	500
22.12	51	510
22.14	51	510
22.16	51	510
22.18	52	520
22.2	52	520
22.22	53	530
22.24	53	530
22.26	54	540
22.28	54	540
22.3	55	550
22.32	55	550
22.34	56	560
22.36	56	560
22.38	57	570
22.4	57	570
22.42	58	580
22.44	58	580
22.46	59	590
22.48	59	590
22.5	60	600
22.52	61	610
22.54	61	610
22.56	62	620
22.58	62	620
22.6	63	630
22.62	63	630
22.64	64	640
22.66	64	640
22.68	65	650
22.7	66	660
22.72	66	660
22.74	67	670
22.76	67	670
22.78	68	680
22.8	68	680
22.82	69	690
22.84	69	690
22.86	70	700
22.88	70	700
22.9	71	710
22.92	72	720
22.94	72	720
22.96	72	720
22.98	73	730
23	73	730
23.02	74	740
23.04	74	740
23.06	74	740
23.08	75	750
23.1	75	750
23.12	76	760
23.14	76	760
23.16	77	770
23.18	77	770
23.2	78	780
23.22	78	780
23.24	78	780
23.26	79	790
23.28	79	790
23.3	80	800
23.32	80	800
23.34	81	810
23.36	81	810
23.38	82	820
23.4	82	820
23.42	83	830
23.44	83	830
23.46	84	840
23.48	84	840
23.5	85	850
23.52	85	850
23.54	85	850
23.56	86	860
23.58	86	860
23.6	87	870
23.62	87	870
23.64	87	870
23.66	88	880
23.68	88	880
23.7	88	880
23.72	89	890
23.74	89	890
23.76	90	900
23.78	90	900
23.8	90	900
23.82	90	900
23.84	91	910
23.86	91	910
23.88	91	910
23.9	91	910
23.92	91	910
23.94	92	920
23.96	92	920
23.98	92	920
24	92	920
24.02	92	920
24.04	92	920
24.06	92	920
24.08	92	920
24.1	93	930
24.12	93	930
24.14	93	930
24.16	93	930
24.18	93	930
24.2	93	930
24.22	93	930
24.24	93	930
24.26	93	930
24.28	93	930
24.3	94	940
24.32	94	940
24.34	94	940
24.36	94	940
24.38	94	940
24.4	94	940
24.42	94	940
24.44	94	940
24.46	94	940
24.48	95	950
24.5	95	950
24.52	95	950
24.54	95	950
24.56	95	950
24.58	95	950
24.6	95	950
24.62	96	960
24.64	96	960
24.66	96	960
24.68	97	970
24.7	97	970
24.72	97	970
24.74	97	970
24.76	97	970
24.78	98	980
24.8	98	980
24.82	98	980
24.84	98	980
24.86	99	990
24.88	99	990
24.9	99	990
24.92	99	990
24.94	100	1000
24.96	100	1000
24.98	100	1000
25	101	1010
25.02	101	1010
25.04	101	1010
25.06	101	1010
25.08	102	1020
25.1	102	1020
25.12	102	1020
25.14	102	1020
25.16	103	1030
25.18	103	1030
25.2	103	1030
25.22	103	1030
25.24	104	1040
25.26	104	1040
25.28	104	1040
25.3	104	1040
25.32	105	1050
25.34	105	1050
25.36	105	1050
25.38	105	1050
25.4	105	1050
25.42	106	1060
25.44	106	1060
25.46	106	1060
25.48	107	1070
25.5	107	1070
25.52	107	1070
25.54	107	1070
25.56	107	1070
25.58	108	1080
25.6	108	1080
25.62	108	1080
25.64	108	1080
25.66	109	1090
25.68	109	1090
25.7	109	1090
25.72	110	1100
25.74	110	1100
25.76	110	1100
25.78	111	1110
25.8	111	1110
25.82	111	1110
25.84	112	1120
25.86	112	1120
25.88	112	1120
25.9	113	1130
25.92	113	1130
25.94	114	1140
25.96	114	1140
25.98	115	1150
26	115	1150
26.02	115	1150
26.04	116	1160
26.06	116	1160
26.08	117	1170
26.1	117	1170
26.12	118	1180
26.14	118	1180
26.16	119	1190
26.18	119	1190
26.2	120	1200
26.22	120	1200
26.24	121	1210
26.26	121	1210
26.28	122	1220
26.3	122	1220
26.32	122	1220
26.34	123	1230
26.36	123	1230
26.38	124	1240
26.4	124	1240
26.42	125	1250
26.44	125	1250
26.46	126	1260
26.48	126	1260
26.5	126	1260
26.52	127	1270
26.54	127	1270
26.56	128	1280
26.58	128	1280
26.6	129	1290
26.62	129	1290
26.64	130	1300
26.66	130	1300
26.68	130	1300
26.7	131	1310
26.72	131	1310
26.74	132	1320
26.76	132	1320
26.78	133	1330
26.8	133	1330
26.82	134	1340
26.84	134	1340
26.86	135	1350
26.88	135	1350
26.9	136	1360
26.92	136	1360
26.94	137	1370
26.96	137	1370
26.98	138	1380
27	138	1380
27.02	139	1390
27.04	139	1390
27.06	140	1400
27.08	140	1400
27.1	140	1400
27.12	141	1410
27.14	141	1410
27.16	142	1420
27.18	142	1420
27.2	142	1420
27.22	143	1430
27.24	143	1430
27.26	143	1430
27.28	144	1440
27.3	144	1440
27.32	144	1440
27.34	145	1450
27.36	145	1450
27.38	145	1450
27.4	145	1450
27.42	146	1460
27.44	146	1460
27.46	146	1460
27.48	146	1460
27.5	146	1460
27.52	147	1470
27.54	147	1470
27.56	147	1470
27.58	147	1470
27.6	147	1470
27.62	148	1480
27.64	148	1480
27.66	148	1480
27.68	148	1480
27.7	148	1480
27.72	149	1490
27.74	149	1490
27.76	149	1490
27.78	150	1500
27.8	150	1500
27.82	150	1500
27.84	150	1500
27.86	150	1500
27.88	151	1510
27.9	151	1510
27.92	151	1510
27.94	151	1510
27.96	152	1520
27.98	152	1520
28	152	1520
28.02	152	1520
28.04	153	1530
28.06	153	1530
28.08	153	1530
28.1	153	1530
28.12	154	1540
28.14	154	1540
28.16	154	1540
28.18	154	1540
28.2	154	1540
28.22	155	1550
28.24	155	1550
28.26	155	1550
28.28	156	1560
28.3	156	1560
28.325	156	1560
28.344	156	1560
28.36	157	1570
28.38	157	1570
28.4	157	1570
28.42	157	1570
28.44	157	1570
28.46	157	1570
28.48	157	1570
28.5	158	1580
28.52	158	1580
28.54	158	1580
28.56	158	1580
28.58	158	1580
28.6	158	1580
28.62	159	1590
28.64	159	1590
28.66	159	1590
28.68	159	1590
28.7	159	1590
28.72	159	1590
28.74	159	1590
28.76	159	1590
28.78	159	1590
28.8	160	1600
28.82	160	1600
28.84	160	1600
28.86	160	1600
28.88	160	1600
28.9	160	1600
28.92	161	1610
28.94	161	1610
28.96	161	1610
28.98	161	1610
29	161	1610
29.02	161	1610
29.04	161	1610
29.06	162	1620
29.08	162	1620
29.1	162	1620
29.12	162	1620
29.14	162	1620
29.16	163	1630
29.18	163	1630
29.2	163	1630
29.22	164	1640
29.24	164	1640
29.26	164	1640
29.28	164	1640
29.3	165	1650
29.32	165	1650
29.34	165	1650
29.36	166	1660
29.38	166	1660
29.4	166	1660
29.42	167	1670
29.44	167	1670
29.46	168	1680
29.48	168	1680
29.5	169	1690
29.52	169	1690
29.54	169	1690
29.56	170	1700
29.58	170	1700
29.6	170	1700
29.62	171	1710
29.64	171	1710
29.66	172	1720
29.68	172	1720
29.7	173	1730
29.72	173	1730
29.74	173	1730
29.76	174	1740
29.78	174	1740
29.8	175	1750
29.82	175	1750
29.84	175	1750
29.86	176	1760
29.88	176	1760
29.9	177	1770
29.92	177	1770
29.94	178	1780
29.96	178	1780
29.98	178	1780
30	179	1790
30.02	179	1790
30.04	179	1790
30.06	180	1800
30.08	180	1800
30.1	181	1810
30.12	181	1810
30.14	181	1810
30.16	182	1820
30.18	182	1820
30.2	183	1830
30.22	183	1830
30.24	184	1840
30.26	184	1840
30.28	185	1850
30.3	185	1850
30.32	186	1860
30.34	186	1860
30.36	187	1870
30.38	187	1870
30.4	188	1880
30.42	188	1880
30.44	189	1890
30.46	189	1890
30.48	190	1900
30.5	190	1900
30.52	190	1900
30.54	191	1910
30.56	192	1920
30.58	192	1920
30.6	193	1930
30.62	193	1930
30.64	193	1930
30.66	194	1940
30.68	194	1940
30.7	195	1950
30.72	195	1950
30.74	196	1960
30.76	196	1960
30.78	197	1970
30.8	197	1970
30.82	197	1970
30.84	198	1980
30.86	198	1980
30.88	199	1990
30.9	199	1990
30.92	199	1990
30.94	200	2000
30.962	200	2000
30.98	200	2000
31	201	2010
31.02	201	2010
31.04	202	2020
31.06	202	2020
31.08	203	2030
31.105	203	2030
31.122	203	2030
31.14	204	2040
31.16	204	2040
31.18	205	2050
31.2	205	2050
31.22	205	2050
31.24	206	2060
31.26	206	2060
31.28	206	2060
31.3	207	2070
31.32	207	2070
31.34	208	2080
31.36	208	2080
31.38	209	2090
31.4	209	2090
31.42	209	2090
31.44	210	2100
31.46	210	2100
31.48	210	2100
31.5	211	2110
31.52	211	2110
31.54	211	2110
31.56	212	2120
31.58	212	2120
31.6	212	2120
31.62	213	2130
31.64	213	2130
31.66	213	2130
31.68	213	2130
31.7	214	2140
31.72	214	2140
31.74	214	2140
31.76	214	2140
31.78	214	2140
31.8	215	2150
31.82	215	2150
31.84	215	2150
31.86	215	2150
31.88	215	2150
31.9	215	2150
31.92	215	2150
31.94	216	2160
31.96	216	2160
31.98	216	2160
32	216	2160
32.02	216	2160
32.04	216	2160
32.06	216	2160
32.08	216	2160
32.1	216	2160
32.12	216	2160
32.14	216	2160
32.16	216	2160
32.18	217	2170
32.2	217	2170
32.22	217	2170
32.24	217	2170
32.26	217	2170
32.28	217	2170
32.3	217	2170
32.32	217	2170
32.34	218	2180
32.36	218	2180
32.38	218	2180
32.4	218	2180
32.42	218	2180
32.44	218	2180
32.46	218	2180
32.48	219	2190
32.5	219	2190
32.52	219	2190
32.54	219	2190
32.56	219	2190
32.58	220	2200
32.6	220	2200
32.62	220	2200
32.64	220	2200
32.66	221	2210
32.68	221	2210
32.7	221	2210
32.72	221	2210
32.74	222	2220
32.76	222	2220
32.78	222	2220
32.8	223	2230
32.82	223	2230
32.84	223	2230
32.86	223	2230
32.88	224	2240
32.9	224	2240
32.92	224	2240
32.94	225	2250
32.96	225	2250
32.98	225	2250
33	226	2260
33.02	226	2260
33.04	226	2260
33.06	226	2260
33.08	227	2270
33.1	227	2270
33.12	227	2270
33.14	227	2270
33.16	228	2280
33.18	228	2280
33.2	228	2280
33.22	229	2290
33.24	229	2290
33.26	229	2290
33.28	229	2290
33.3	230	2300
33.32	230	2300
33.34	230	2300
33.36	230	2300
33.38	231	2310
33.4	231	2310
33.42	231	2310
33.44	231	2310
33.46	232	2320
33.48	232	2320
33.5	232	2320
33.52	233	2330
33.54	233	2330
33.56	233	2330
33.58	234	2340
33.6	234	2340
33.62	234	2340
33.64	235	2350
33.66	235	2350
33.68	235	2350
33.7	236	2360
33.72	236	2360
33.74	236	2360
33.76	237	2370
33.78	237	2370
33.8	238	2380
33.82	238	2380
33.84	239	2390
33.86	239	2390
33.88	239	2390
33.9	240	2400
33.92	241	2410
33.94	241	2410
33.96	241	2410
33.98	242	2420
34	242	2420
34.02	243	2430
34.04	243	2430
34.06	244	2440
34.08	244	2440
34.1	244	2440
34.12	245	2450
34.14	245	2450
34.16	246	2460
34.18	246	2460
34.2	247	2470
34.22	247	2470
34.24	247	2470
34.26	248	2480
34.28	248	2480
34.3	249	2490
34.32	249	2490
34.34	249	2490
34.36	250	2500
34.38	250	2500
34.4	251	2510
34.42	251	2510
34.44	251	2510
34.46	252	2520
34.48	252	2520
34.5	253	2530
34.52	253	2530
34.54	253	2530
34.56	254	2540
34.58	254	2540
34.6	254	2540
34.62	255	2550
34.64	255	2550
34.66	256	2560
34.68	256	2560
34.7	257	2570
34.72	257	2570
34.74	258	2580
34.76	258	2580
34.78	258	2580
34.8	259	2590
34.82	259	2590
34.84	260	2600
34.86	260	2600
34.88	261	2610
34.9	261	2610
34.92	261	2610
34.94	262	2620
34.96	262	2620
34.98	263	2630
35	263	2630
35.02	263	2630
35.04	264	2640
35.06	264	2640
35.08	265	2650
35.1	265	2650
35.12	265	2650
35.14	266	2660
35.16	266	2660
35.18	267	2670
35.2	267	2670
35.22	267	2670
35.24	268	2680
35.26	268	2680
35.28	268	2680
35.3	268	2680
35.32	269	2690
35.34	269	2690
35.36	269	2690
35.38	270	2700
35.4	270	2700
35.42	270	2700
35.44	270	2700
35.46	271	2710
35.48	271	2710
35.5	271	2710
35.52	272	2720
35.54	272	2720
35.56	272	2720
35.58	272	2720
35.6	273	2730
35.62	273	2730
35.64	273	2730
35.66	273	2730
35.68	274	2740
35.7	274	2740
35.72	274	2740
35.74	274	2740
35.76	275	2750
35.78	275	2750
35.8	275	2750
35.82	276	2760
35.84	276	2760
35.86	277	2770
35.88	277	2770
35.9	277	2770
35.92	278	2780
35.94	278	2780
35.96	278	2780
35.98	278	2780
36	279	2790
36.02	279	2790
36.04	279	2790
36.06	280	2800
36.08	280	2800
36.1	280	2800
36.12	280	2800
36.14	281	2810
36.16	281	2810
36.18	281	2810
36.2	282	2820
36.22	282	2820
36.24	282	2820
36.26	282	2820
36.28	283	2830
36.3	283	2830
36.32	283	2830
36.34	283	2830
36.36	283	2830
36.38	283	2830
36.4	284	2840
36.42	284	2840
36.44	284	2840
36.46	284	2840
36.48	284	2840
36.5	284	2840
36.52	285	2850
36.54	285	2850
36.56	285	2850
36.58	285	2850
36.6	285	2850
36.62	285	2850
36.64	286	2860
36.66	286	2860
36.68	286	2860
36.7	286	2860
36.72	286	2860
36.74	286	2860
36.76	286	2860
36.78	287	2870
36.8	287	2870
36.82	287	2870
36.84	287	2870
36.86	287	2870
36.88	287	2870
36.9	287	2870
36.92	288	2880
36.94	288	2880
36.96	288	2880
36.98	288	2880
37	288	2880
37.02	289	2890
37.04	289	2890
37.06	289	2890
37.08	289	2890
37.1	289	2890
37.12	290	2900
37.14	290	2900
37.16	290	2900
37.18	290	2900
37.2	291	2910
37.22	291	2910
37.24	291	2910
37.26	292	2920
37.28	292	2920
37.3	292	2920
37.32	293	2930
37.34	293	2930
37.36	293	2930
37.38	294	2940
37.4	294	2940
37.42	294	2940
37.44	295	2950
37.46	295	2950
37.48	295	2950
37.5	295	2950
37.52	296	2960
37.54	296	2960
37.56	296	2960
37.58	297	2970
37.6	297	2970
37.62	297	2970
37.64	298	2980
37.66	298	2980
37.68	298	2980
37.7	298	2980
37.72	299	2990
37.74	299	2990
37.76	299	2990
37.78	299	2990
37.8	300	3000
37.82	300	3000
37.84	300	3000
37.86	301	3010
37.88	301	3010
37.9	301	3010
37.92	301	3010
37.94	301	3010
37.96	301	3010
37.98	302	3020
38	302	3020
38.02	302	3020
38.04	303	3030
38.06	303	3030
38.08	303	3030
38.1	303	3030
38.12	304	3040
38.14	304	3040
38.16	304	3040
38.18	304	3040
38.2	305	3050
38.22	305	3050
38.24	306	3060
38.26	306	3060
38.28	306	3060
38.3	306	3060
38.32	307	3070
38.34	307	3070
38.36	308	3080
38.38	308	3080
38.4	308	3080
38.42	309	3090
38.44	309	3090
38.46	309	3090
38.48	310	3100
38.5	310	3100
38.52	310	3100
38.54	311	3110
38.56	311	3110
38.58	312	3120
38.6	312	3120
38.62	313	3130
38.64	313	3130
38.66	313	3130
38.68	314	3140
38.7	314	3140
38.72	314	3140
38.74	315	3150
38.76	315	3150
38.78	315	3150
38.8	316	3160
38.82	316	3160
38.84	316	3160
38.86	317	3170
38.88	317	3170
38.9	317	3170
38.92	318	3180
38.94	318	3180
38.96	318	3180
38.98	319	3190
39	319	3190
39.02	319	3190
39.04	320	3200
39.06	320	3200
39.08	320	3200
39.1	320	3200
39.12	321	3210
39.14	321	3210
39.16	321	3210
39.18	322	3220
39.2	322	3220
39.22	322	3220
39241	323	3230
39.26	323	3230
39.28	323	3230
39.3	324	3240
39.32	324	3240
39.34	324	3240
39.36	325	3250
39.38	325	3250
39.4	325	3250
39.42	326	3260
39.44	326	3260
39.46	326	3260
39.48	327	3270
39.5	327	3270
39.52	328	3280
39.54	328	3280
39.56	328	3280
39.58	329	3290
39.6	329	3290
39.62	330	3300
39.64	330	3300
39.66	330	3300
39.68	331	3310
39.7	331	3310
39.72	331	3310
39.74	332	3320
39.76	332	3320
39.78	332	3320
39.8	333	3330
39.82	333	3330
39.84	333	3330
39.86	334	3340
39.88	334	3340
39.9	334	3340
39.92	335	3350
39.94	335	3350
39.96	335	3350
39.98	336	3360
40	336	3360
40.02	337	3370
40045	337	3370
40064	337	3370
40.08	337	3370
40.1	338	3380
40.12	338	3380
40.14	338	3380
40.16	338	3380
40.18	339	3390
40.2	339	3390
40.22	339	3390
40.24	340	3400
40.26	340	3400
40.28	340	3400
40.3	341	3410
40.32	341	3410
40.34	341	3410
40.36	342	3420
40.38	342	3420
40.4	342	3420
40.42	342	3420
40.44	343	3430
40.46	343	3430
40.48	343	3430
40.5	344	3440
40.52	344	3440
40.54	345	3450
40.56	345	3450
40.58	345	3450
40.6	346	3460
40.62	346	3460
40.64	346	3460
40.66	347	3470
40.68	347	3470
40.7	347	3470
40.72	348	3480
40.74	348	3480
40.77	349	3490
40783	349	3490
40.8	349	3490
40.82	350	3500
40.84	350	3500
40.86	351	3510
40.88	351	3510
40.9	351	3510
40.92	352	3520
40.94	352	3520
40.96	352	3520
40.98	353	3530
41	353	3530
41.02	353	3530
41.04	354	3540
41.06	354	3540
41.08	354	3540
41.1	354	3540
41.12	355	3550
41.14	355	3550
41.16	355	3550
41.18	356	3560
41.2	356	3560
41.22	356	3560
41.24	357	3570
41.26	357	3570
41.28	357	3570
41.3	357	3570
41.32	358	3580
41.34	358	3580
41.36	358	3580
41.38	358	3580
41.4	359	3590
41.42	359	3590
41.44	359	3590
41.46	359	3590
41.48	360	3600
41.5	360	3600
41.52	360	3600
41.54	361	3610
41.56	361	3610
41581	361	3610
41.6	361	3610
41.62	362	3620
41.64	362	3620
41.66	362	3620
41.68	363	3630
41.7	363	3630
41.72	363	3630
41.74	364	3640
41.76	364	3640
41.78	364	3640
41.8	365	3650
41.82	365	3650
41.84	365	3650
41.86	366	3660
41.88	366	3660
41.9	366	3660
41.92	366	3660
41.94	367	3670
41.96	367	3670
41.98	367	3670
42	368	3680
42.02	368	3680
42.04	368	3680
42.06	368	3680
42.08	369	3690
42.1	369	3690
42.12	369	3690
42.14	370	3700
42.16	370	3700
42.18	370	3700
42.2	370	3700
42.22	370	3700
42.24	371	3710
42.26	371	3710
42.28	371	3710
42.3	371	3710
42.32	372	3720
42.34	372	3720
42.36	372	3720
42.38	372	3720
42.4	373	3730
42.42	373	3730
42.44	373	3730
42.46	373	3730
42.48	373	3730
42.5	373	3730
42.52	373	3730
42.54	374	3740
42.56	374	3740
42.58	374	3740
42.6	374	3740
42.62	374	3740
42.64	375	3750
42.66	375	3750
42.68	375	3750
42.7	375	3750
42.72	375	3750
42.74	376	3760
42.76	376	3760
42.78	376	3760
42.8	376	3760
42.82	376	3760
42.84	377	3770
42.86	377	3770
42.88	377	3770
42.9	377	3770
42.92	378	3780
42.94	378	3780
42.96	378	3780
42.98	378	3780
43	378	3780
43.02	379	3790
43.04	379	3790
43.06	379	3790
43.08	379	3790
43.1	379	3790
43.12	380	3800
43.14	380	3800
43.16	380	3800
43.18	380	3800
43.2	380	3800
43221	381	3810
43241	381	3810
43261	381	3810
43281	381	3810
43301	381	3810
43321	381	3810
43341	382	3820
43361	382	3820
43381	382	3820
43401	382	3820
43421	382	3820
43441	382	3820
43461	382	3820
43481	382	3820
43501	383	3830
43521	383	3830
43541	383	3830
43561	383	3830
43581	383	3830
43601	383	3830
43621	383	3830
43641	383	3830
43661	383	3830
43681	383	3830
43701	383	3830
43721	383	3830
43741	383	3830
43761	383	3830
43781	383	3830
43801	384	3840
43821	384	3840
43841	384	3840
43861	384	3840
43881	384	3840
43901	384	3840
43921	384	3840
43941	384	3840
43961	384	3840
43981	384	3840
44001	384	3840
44021	385	3850
44041	385	3850
44061	385	3850
44081	385	3850
44101	385	3850
44121	385	3850
44141	386	3860
44161	386	3860
44181	386	3860
44201	386	3860
44221	386	3860
44241	387	3870
44261	387	3870
44281	387	3870
44301	387	3870
44321	387	3870
44341	388	3880
44361	388	3880
44381	388	3880
44401	388	3880
44421	389	3890
44441	389	3890
44461	389	3890
44481	389	3890
44501	390	3900
44521	390	3900
44541	390	3900
44561	391	3910
44581	391	3910
44601	391	3910
44621	392	3920
44641	392	3920
44661	392	3920
44681	392	3920
44701	393	3930
44721	393	3930
44741	393	3930
44761	393	3930
44781	394	3940
44801	394	3940
44821	394	3940
44841	395	3950
44861	395	3950
44881	395	3950
44901	396	3960
44921	396	3960
44941	396	3960
44961	397	3970
44981	397	3970
45001	397	3970
45021	398	3980
45041	398	3980
45061	398	3980
45081	399	3990
45101	399	3990
45121	400	4000
45141	400	4000
45161	400	4000
45181	401	4010
45201	401	4010
45221	402	4020
45241	402	4020
45261	402	4020
45281	403	4030
45301	403	4030
45321	404	4040
45341	404	4040
45361	404	4040
45381	405	4050
45401	405	4050
45421	406	4060
45441	406	4060
45461	407	4070
45481	407	4070
45501	408	4080
45521	408	4080
45541	409	4090
45561	409	4090
45581	410	4100
45601	410	4100
45621	410	4100
45641	411	4110
45661	411	4110
45681	412	4120
45701	412	4120
45721	413	4130
45741	413	4130
45761	414	4140
45781	414	4140
45801	415	4150
45821	416	4160
45841	416	4160
45861	417	4170
45881	417	4170
45901	418	4180
45921	419	4190
45941	419	4190
45961	420	4200
45981	420	4200
46001	421	4210
46021	421	4210
46041	422	4220
46061	423	4230
46081	423	4230
46101	424	4240
46121	424	4240
46141	425	4250
46161	426	4260
46181	426	4260
46201	427	4270
46221	428	4280
46241	428	4280
46261	429	4290
46281	430	4300
46301	430	4300
46321	431	4310
46341	432	4320
46361	432	4320
46381	433	4330
46401	434	4340
46421	434	4340
46441	435	4350
46461	436	4360
46481	436	4360
46501	437	4370
46521	438	4380
46541	438	4380
46561	439	4390
46581	440	4400
46601	440	4400
46621	441	4410
46641	442	4420
46661	442	4420
46681	443	4430
46701	444	4440
46721	445	4450
46741	445	4450
46761	446	4460
46781	447	4470
46801	447	4470
46821	448	4480
46841	449	4490
46861	449	4490
46881	450	4500
46901	451	4510
46921	452	4520
46941	452	4520
46961	453	4530
46981	454	4540
47001	455	4550
47021	455	4550
47041	456	4560
47061	457	4570
47081	458	4580
47101	458	4580
47121	459	4590
47141	460	4600
47161	460	4600
47181	461	4610
47201	462	4620
47221	462	4620
47241	463	4630
47261	464	4640
47281	464	4640
47301	465	4650
47321	465	4650
47341	466	4660
47361	467	4670
47381	467	4670
47401	468	4680
47421	469	4690
47441	469	4690
47461	470	4700
47481	470	4700
47501	471	4710
47521	472	4720
47541	472	4720
47561	473	4730
47581	474	4740
47601	474	4740
47621	475	4750
47641	476	4760
47661	476	4760
47681	477	4770
47701	477	4770
47721	478	4780
47741	479	4790
47761	479	4790
47781	480	4800
47801	481	4810
47821	481	4810
47841	482	4820
47861	482	4820
47881	483	4830
47901	484	4840
47921	484	4840
47941	485	4850
47961	486	4860
47981	486	4860
48001	487	4870
48021	488	4880
48041	488	4880
48061	489	4890
48081	490	4900
48101	491	4910
48121	491	4910
48141	492	4920
48161	493	4930
48181	494	4940
48201	494	4940
48221	495	4950
48241	496	4960
48261	497	4970
48281	498	4980
48301	498	4980
48321	499	4990
48341	500	5000
48361	501	5010
48381	501	5010
48401	502	5020
48421	503	5030
48441	504	5040
48461	505	5050
48481	506	5060
48501	506	5060
48521	507	5070
48541	508	5080
48561	508	5080
48581	509	5090
48601	510	5100
48621	511	5110
48641	512	5120
48661	512	5120
48681	513	5130
48701	514	5140
48721	514	5140
48741	515	5150
48761	516	5160
48781	517	5170
48801	518	5180
48821	518	5180
48841	519	5190
48861	520	5200
48881	521	5210
48901	521	5210
48921	522	5220
48941	523	5230
48961	524	5240
48981	524	5240
49001	525	5250
49021	526	5260
49041	527	5270
49061	528	5280
49081	528	5280
49101	529	5290
49121	530	5300
49141	531	5310
49161	532	5320
49181	532	5320
49201	533	5330
49221	534	5340
49241	535	5350
49261	535	5350
49281	536	5360
49301	537	5370
49321	537	5370
49341	538	5380
49361	539	5390
49381	540	5400
49401	540	5400
49421	541	5410
49441	542	5420
49461	542	5420
49481	543	5430
49501	544	5440
49521	544	5440
49541	545	5450
49561	546	5460
49581	547	5470
49601	547	5470
49621	548	5480
49641	549	5490
49661	550	5500
49681	550	5500
49701	551	5510
49721	552	5520
49741	553	5530
49761	554	5540
49781	554	5540
49801	555	5550
49821	556	5560
49841	557	5570
49861	558	5580
49881	559	5590
49901	559	5590
49921	560	5600
49941	561	5610
49961	562	5620
49981	563	5630
50001	564	5640
50021	564	5640
50041	565	5650
50061	566	5660
50081	566	5660
50101	567	5670
50121	568	5680
50141	569	5690
50161	570	5700
50181	570	5700
50201	571	5710
50221	572	5720
50241	573	5730
50261	573	5730
50281	574	5740
50301	575	5750
50321	576	5760
50341	577	5770
50361	578	5780
50381	579	5790
50401	579	5790
50421	580	5800
50441	581	5810
50461	582	5820
50481	583	5830
50501	583	5830
50521	584	5840
50541	585	5850
50561	586	5860
50581	586	5860
50601	587	5870
50621	588	5880
50641	589	5890
50661	589	5890
50681	590	5900
50701	591	5910
50721	591	5910
50741	592	5920
50761	593	5930
50781	594	5940
50801	594	5940
50821	595	5950
50841	596	5960
50861	597	5970
50881	597	5970
50901	598	5980
50921	599	5990
50941	600	6000
50961	600	6000
50981	601	6010
51001	602	6020
51021	602	6020
51041	603	6030
51061	604	6040
51081	604	6040
51101	605	6050
51121	606	6060
51141	607	6070
51161	607	6070
51181	608	6080
51201	609	6090
51221	609	6090
51241	610	6100
51261	611	6110
51281	611	6110
51301	612	6120
51321	613	6130
51341	614	6140
51361	614	6140
51381	615	6150
51401	616	6160
51421	616	6160
51441	617	6170
51461	618	6180
51481	619	6190
51501	619	6190
51521	620	6200
51541	621	6210
51561	622	6220
51581	623	6230
51601	623	6230
51621	624	6240
51641	625	6250
51661	626	6260
51681	627	6270
51701	628	6280
51721	628	6280
51741	629	6290
51761	630	6300
51781	631	6310
51801	632	6320
51821	632	6320
51841	633	6330
51861	634	6340
51882	635	6350
51901	636	6360
51921	636	6360
51941	637	6370
51961	638	6380
51981	639	6390
52001	640	6400
52021	641	6410
52041	641	6410
52061	642	6420
52081	643	6430
52101	644	6440
52121	645	6450
52141	645	6450
52161	646	6460
52181	647	6470
52201	648	6480
52221	648	6480
52241	649	6490
52261	650	6500
52281	650	6500
52301	651	6510
52321	652	6520
52341	653	6530
52361	653	6530
52381	654	6540
52401	655	6550
52421	655	6550
52441	656	6560
52461	657	6570
52481	658	6580
52501	658	6580
52521	659	6590
52541	660	6600
52561	660	6600
52581	661	6610
52601	662	6620
52621	663	6630
52641	663	6630
52661	664	6640
52681	665	6650
52701	665	6650
52721	666	6660
52741	667	6670
52761	668	6680
52781	668	6680
52801	669	6690
52821	670	6700
52841	671	6710
52861	671	6710
52881	672	6720
52901	673	6730
52921	673	6730
52941	674	6740
52961	675	6750
52981	675	6750
53001	676	6760
53021	677	6770
53041	678	6780
53061	679	6790
53081	679	6790
53101	680	6800
53121	681	6810
53141	681	6810
53161	682	6820
53181	683	6830
53201	684	6840
53221	684	6840
53241	685	6850
53261	686	6860
53281	687	6870
53301	687	6870
53321	688	6880
53341	689	6890
53361	690	6900
53381	690	6900
53401	691	6910
53421	692	6920
53441	693	6930
53461	693	6930
53481	694	6940
53501	695	6950
53521	695	6950
53541	696	6960
53561	697	6970
53581	698	6980
53601	698	6980
53621	699	6990
53641	700	7000
53661	701	7010
53681	701	7010
53701	702	7020
53721	703	7030
53741	704	7040
53761	705	7050
53782	706	7060
53801	706	7060
53821	707	7070
53841	708	7080
53861	709	7090
53881	709	7090
53901	710	7100
53921	711	7110
53941	711	7110
53961	712	7120
53981	713	7130
54001	714	7140
54021	714	7140
54041	715	7150
54061	716	7160
54081	716	7160
54101	717	7170
54121	717	7170
54141	718	7180
54161	719	7190
54181	719	7190
54201	720	7200
54221	721	7210
54241	721	7210
54261	722	7220
54281	722	7220
54301	723	7230
54321	724	7240
54341	724	7240
54361	725	7250
54381	725	7250
54401	726	7260
54421	727	7270
54441	727	7270
54461	728	7280
54481	728	7280
54501	729	7290
54521	729	7290
54541	730	7300
54561	730	7300
54581	731	7310
54601	731	7310
54621	732	7320
54641	733	7330
54661	733	7330
54681	734	7340
54701	734	7340
54721	735	7350
54741	735	7350
54761	736	7360
54781	736	7360
54801	737	7370
54821	738	7380
54841	738	7380
54861	739	7390
54881	739	7390
54901	740	7400
54921	741	7410
54941	741	7410
54961	742	7420
54981	743	7430
55001	743	7430
55021	744	7440
55041	744	7440
55061	745	7450
55081	746	7460
55101	746	7460
55121	747	7470
55141	747	7470
55161	748	7480
55181	749	7490
55201	749	7490
55221	750	7500
55241	751	7510
55261	751	7510
55281	752	7520
55301	752	7520
55321	753	7530
55341	753	7530
55361	754	7540
55381	755	7550
55401	756	7560
55421	756	7560
55441	757	7570
55461	757	7570
55481	758	7580
55501	758	7580
55521	759	7590
55541	760	7600
55561	760	7600
55581	761	7610
55601	761	7610
55621	762	7620
55641	763	7630
55661	763	7630
55681	764	7640
55701	764	7640
55721	765	7650
55741	765	7650
55761	766	7660
55782	767	7670
55801	767	7670
55821	768	7680
55841	768	7680
55861	769	7690
55881	770	7700
55901	770	7700
55921	771	7710
55941	772	7720
55961	772	7720
55981	773	7730
56001	774	7740
56021	774	7740
56041	775	7750
56061	776	7760
56081	776	7760
56101	777	7770
56121	777	7770
56141	778	7780
56161	779	7790
56181	779	7790
56201	780	7800
56221	781	7810
56241	781	7810
56261	782	7820
56281	782	7820
56301	783	7830
56321	783	7830
56341	784	7840
56361	784	7840
56381	785	7850
56401	786	7860
56421	786	7860
56441	787	7870
56461	787	7870
56481	788	7880
56501	788	7880
56521	789	7890
56541	789	7890
56561	789	7890
56581	790	7900
56612	791	7910
56635	791	7910
56651	792	7920
56667	792	7920
56683	792	7920
56701	793	7930
56721	793	7930
56741	794	7940
56761	794	7940
56781	794	7940
56801	795	7950
56821	795	7950
56841	796	7960
56861	796	7960
56881	796	7960
56901	797	7970
56921	797	7970
56941	798	7980
56961	798	7980
56981	799	7990
57001	799	7990
57021	799	7990
57041	800	8000
57061	800	8000
57081	801	8010
57101	801	8010
57121	801	8010
57141	802	8020
57161	802	8020
57181	802	8020
57201	803	8030
57221	803	8030
57241	803	8030
57261	803	8030
57281	804	8040
57301	804	8040
57321	804	8040
57341	805	8050
57361	805	8050
57381	805	8050
57401	805	8050
57421	805	8050
57441	806	8060
57461	806	8060
57481	806	8060
57501	806	8060
57521	807	8070
57541	807	8070
57561	807	8070
57581	807	8070
57601	807	8070
57621	807	8070
57641	808	8080
57661	808	8080
57682	808	8080
57701	808	8080
57721	808	8080
57741	808	8080
57761	809	8090
57782	809	8090
57801	809	8090
57821	809	8090
57841	809	8090
57861	809	8090
57882	810	8100
57901	810	8100
57921	810	8100
57941	810	8100
57961	810	8100
57981	810	8100
58001	811	8110
58021	811	8110
58041	811	8110
58061	811	8110
58081	811	8110
58101	811	8110
58121	811	8110
58141	811	8110
58161	812	8120
58181	812	8120
58201	812	8120
58221	812	8120
58241	812	8120
58261	812	8120
58281	812	8120
58301	812	8120
58321	812	8120
58341	812	8120
58361	812	8120
58381	812	8120
58401	812	8120
58421	812	8120
58441	812	8120
58461	813	8130
58481	813	8130
58501	813	8130
58521	813	8130
58541	813	8130
58561	813	8130
58581	813	8130
58601	813	8130
58621	813	8130
58641	813	8130
58661	813	8130
58682	813	8130
58701	813	8130
58721	813	8130
58741	813	8130
58761	813	8130
58781	813	8130
58801	813	8130
58821	813	8130
58841	813	8130
58861	813	8130
58881	813	8130
58901	813	8130
58921	813	8130
58941	813	8130
58961	813	8130
58981	813	8130
59001	813	8130
59021	813	8130
59041	813	8130
59061	813	8130
59081	813	8130
59101	813	8130
59121	813	8130
59141	813	8130
59161	813	8130
59181	813	8130
59201	813	8130
59221	813	8130
59241	813	8130
59261	813	8130
59281	813	8130
59301	813	8130
59321	813	8130
59341	814	8140
59361	814	8140
59381	814	8140
59401	814	8140
59421	814	8140
59441	814	8140
59461	814	8140
59481	814	8140
59501	814	8140
59521	814	8140
59541	815	8150
59561	815	8150
59581	815	8150
59601	815	8150
59621	815	8150
59641	815	8150
59661	815	8150
59681	815	8150
59701	815	8150
59721	816	8160
59741	816	8160
59761	816	8160
59782	816	8160
59801	816	8160
59821	816	8160
59841	816	8160
59861	816	8160
59881	816	8160
59901	817	8170
59921	817	8170
59941	817	8170
59961	817	8170
59981	817	8170
60001	817	8170
60021	817	8170
60041	817	8170
60061	818	8180
60081	818	8180
60101	818	8180
60121	818	8180
60141	818	8180
60161	818	8180
60181	818	8180
60201	818	8180
60221	818	8180
60241	818	8180
60261	819	8190
60281	819	8190
60301	819	8190
60321	819	8190
60341	819	8190
60361	819	8190
60381	819	8190
60401	819	8190
60421	819	8190
60441	819	8190
60461	819	8190
60481	819	8190
60501	819	8190
60521	820	8200
60541	820	8200
60561	820	8200
60581	820	8200
60601	820	8200
60621	820	8200
60641	820	8200
60661	820	8200
60681	820	8200
60701	820	8200
60721	820	8200
60741	821	8210
60761	821	8210
60781	821	8210
60801	821	8210
60821	821	8210
60841	821	8210
60861	821	8210
60881	821	8210
60901	821	8210
60921	821	8210
60941	821	8210
60961	821	8210
60981	821	8210
61001	821	8210
61021	821	8210
61041	821	8210
61061	821	8210
61081	821	8210
61101	821	8210
61121	821	8210
61141	822	8220
61161	822	8220
61181	822	8220
61201	822	8220
61221	822	8220
61241	822	8220
61261	822	8220
61281	822	8220
61301	822	8220
61321	822	8220
61341	822	8220
61361	822	8220
61381	822	8220
61401	822	8220
61421	822	8220
61441	823	8230
61461	823	8230
61481	823	8230
61501	823	8230
61521	823	8230
61541	823	8230
61561	823	8230
61581	823	8230
61601	823	8230
61621	823	8230
61641	823	8230
61661	823	8230
61681	823	8230
61701	823	8230
61721	823	8230
61741	823	8230
61761	823	8230
61781	823	8230
61801	823	8230
61821	823	8230
61841	823	8230
61861	823	8230
61881	824	8240
61901	824	8240
61921	824	8240
61941	824	8240
61961	824	8240
61981	824	8240
62001	824	8240
62021	824	8240
62041	824	8240
62061	824	8240
62081	824	8240
62101	824	8240
62121	824	8240
62141	824	8240
62161	824	8240
62181	824	8240
62201	824	8240
62221	824	8240
62241	825	8250
62261	825	8250
62281	825	8250
62301	825	8250
62321	825	8250
62341	825	8250
62361	825	8250
62381	825	8250
62401	825	8250
62421	825	8250
62441	825	8250
62461	825	8250
62481	825	8250
62501	825	8250
62521	825	8250
62541	825	8250
62561	825	8250
62581	825	8250
62601	825	8250
62621	826	8260
62641	826	8260
62661	826	8260
62681	826	8260
62701	826	8260
62721	826	8260
62741	826	8260
62761	826	8260
62781	826	8260
62801	826	8260
62821	826	8260
62841	826	8260
62861	826	8260
62881	826	8260
62901	826	8260
62921	826	8260
62941	826	8260
62961	826	8260
62981	826	8260
63001	826	8260
63021	826	8260
63041	827	8270
63061	827	8270
63081	827	8270
63101	827	8270
63121	827	8270
63141	827	8270
63161	827	8270
63181	827	8270
63201	827	8270
63221	828	8280
63241	828	8280
63261	828	8280
63281	828	8280
63301	828	8280
63321	828	8280
63341	828	8280
63361	828	8280
63381	829	8290
63401	829	8290
63421	829	8290
63441	829	8290
63461	829	8290
63481	829	8290
63501	829	8290
63521	829	8290
63541	830	8300
63561	830	8300
63581	830	8300
63601	830	8300
63621	830	8300
63641	830	8300
63661	830	8300
63681	831	8310
63701	831	8310
63721	831	8310
63741	831	8310
63761	831	8310
63781	831	8310
63801	831	8310
63821	831	8310
63841	831	8310
63861	832	8320
63881	832	8320
63901	832	8320
63921	832	8320
63941	832	8320
63961	832	8320
63981	832	8320
64001	832	8320
64021	832	8320
64041	832	8320
64061	832	8320
64081	832	8320
64101	832	8320
64121	832	8320
64141	832	8320
64161	832	8320
64181	833	8330
64201	833	8330
64221	833	8330
64241	833	8330
64261	833	8330
64281	833	8330
64301	833	8330
64321	833	8330
64341	833	8330
64361	833	8330
64381	833	8330
64401	833	8330
64421	833	8330
64441	833	8330
64461	833	8330
64481	833	8330
64501	833	8330
64521	833	8330
64541	834	8340
64561	834	8340
64581	834	8340
64601	834	8340
64621	834	8340
64641	834	8340
64661	834	8340
64681	834	8340
64701	834	8340
64721	834	8340
64741	834	8340
64761	834	8340
64781	834	8340
64801	834	8340
64821	835	8350
64841	835	8350
64861	835	8350
64881	835	8350
64901	835	8350
64921	835	8350
64941	835	8350
64961	835	8350
64981	835	8350
65001	835	8350
65021	836	8360
65041	836	8360
65061	836	8360
65081	836	8360
65101	836	8360
65121	836	8360
65141	836	8360
65161	836	8360
65181	837	8370
65201	837	8370
65221	837	8370
65241	837	8370
65261	837	8370
65281	837	8370
65301	837	8370
65321	837	8370
65341	837	8370
65361	838	8380
65381	838	8380
65401	838	8380
65421	838	8380
65441	838	8380
65461	838	8380
65481	838	8380
65501	838	8380
65521	838	8380
65541	838	8380
65561	838	8380
65581	838	8380
65601	839	8390
65621	839	8390
65641	839	8390
65661	839	8390
65681	839	8390
65701	839	8390
65721	839	8390
65741	839	8390
65761	839	8390
65781	839	8390
65801	839	8390
65821	840	8400
65841	840	8400
65861	840	8400
65881	840	8400
65901	840	8400
65921	840	8400
65941	840	8400
65961	840	8400
65981	840	8400
66001	840	8400
66021	841	8410
66041	841	8410
66061	841	8410
66081	841	8410
66101	841	8410
66121	841	8410
66141	841	8410
66161	841	8410
66181	842	8420
66201	842	8420
66221	842	8420
66241	842	8420
66261	842	8420
66281	842	8420
66301	843	8430
66321	843	8430
66341	843	8430
66361	843	8430
66381	843	8430
66401	843	8430
66421	844	8440
66441	844	8440
66461	844	8440
66481	844	8440
66501	844	8440
66521	845	8450
66541	845	8450
66561	845	8450
66581	845	8450
66601	846	8460
66621	846	8460
66641	846	8460
66661	846	8460
66681	847	8470
66701	847	8470
66721	847	8470
66741	847	8470
66761	847	8470
66781	848	8480
66801	848	8480
66821	848	8480
66841	848	8480
66861	849	8490
66881	849	8490
66901	849	8490
66921	849	8490
66941	849	8490
66961	850	8500
66981	850	8500
67001	850	8500
67021	850	8500
67041	850	8500
67061	851	8510
67081	851	8510
67101	851	8510
67121	851	8510
67141	851	8510
67161	851	8510
67181	852	8520
67201	852	8520
67221	852	8520
67241	852	8520
67261	852	8520
67281	852	8520
67301	853	8530
67321	853	8530
67341	853	8530
67361	853	8530
67381	853	8530
67401	853	8530
67421	853	8530
67441	854	8540
67461	854	8540
67481	854	8540
67501	854	8540
67521	854	8540
67541	854	8540
67561	855	8550
67581	855	8550
67601	855	8550
67621	855	8550
67641	855	8550
67661	855	8550
67681	856	8560
67701	856	8560
67721	856	8560
67741	856	8560
67761	856	8560
67781	856	8560
67801	856	8560
67821	857	8570
67841	857	8570
67861	857	8570
67881	857	8570
67901	857	8570
67921	857	8570
67941	858	8580
67961	858	8580
67981	858	8580
68001	858	8580
68021	858	8580
68041	858	8580
68061	859	8590
68081	859	8590
68101	859	8590
68121	859	8590
68141	859	8590
68161	860	8600
68181	860	8600
68201	860	8600
68221	860	8600
68241	860	8600
68261	860	8600
68281	861	8610
68301	861	8610
68321	861	8610
68341	861	8610
68361	861	8610
68381	861	8610
68401	861	8610
68421	861	8610
68441	861	8610
68461	862	8620
68481	862	8620
68501	862	8620
68521	862	8620
68541	862	8620
68561	862	8620
68581	862	8620
68601	862	8620
68621	862	8620
68641	862	8620
68661	862	8620
68681	862	8620
68701	862	8620
68721	862	8620
68741	862	8620
68761	862	8620
68781	862	8620
68801	862	8620
68821	862	8620
68841	863	8630
68861	863	8630
68881	863	8630
68901	863	8630
68921	863	8630
68941	863	8630
68961	863	8630
68981	863	8630
69001	863	8630
69021	863	8630
69041	863	8630
69061	863	8630
69081	863	8630
69101	863	8630
69121	863	8630
69141	863	8630
69161	863	8630
69181	863	8630
69201	863	8630
69221	863	8630
69241	863	8630
69261	863	8630
69281	863	8630
69301	863	8630
69321	863	8630
69341	863	8630
69361	863	8630
69381	863	8630
69401	863	8630
69421	863	8630
69441	863	8630
69461	864	8640
69481	864	8640
69501	864	8640
69521	864	8640
69541	864	8640
69561	864	8640
69581	864	8640
69601	864	8640
69621	865	8650
69641	865	8650
69661	865	8650
69681	865	8650
69701	865	8650
69721	865	8650
69741	865	8650
69761	866	8660
69781	866	8660
69801	866	8660
69821	866	8660
69841	866	8660
69861	867	8670
69881	867	8670
69901	867	8670
69921	867	8670
69941	868	8680
69961	868	8680
69981	868	8680
70001	868	8680
70021	868	8680
70041	869	8690
70061	869	8690
70081	869	8690
70101	869	8690
70121	869	8690
70141	870	8700
70161	870	8700
70181	870	8700
70201	870	8700
70221	870	8700
70241	871	8710
70261	871	8710
70281	871	8710
70301	871	8710
70321	871	8710
70341	872	8720
70361	872	8720
70381	872	8720
70401	872	8720
70421	872	8720
70441	873	8730
70461	873	8730
70481	873	8730
70501	873	8730
70521	873	8730
70541	873	8730
70561	874	8740
70581	874	8740
70601	874	8740
70621	874	8740
70641	874	8740
70661	874	8740
70681	875	8750
70701	875	8750
70721	875	8750
70741	875	8750
70761	875	8750
70781	875	8750
70801	876	8760
70821	876	8760
70841	876	8760
70861	876	8760
70881	876	8760
70901	877	8770
70921	877	8770
70941	877	8770
70961	877	8770
70981	877	8770
71001	878	8780
71021	878	8780
71041	878	8780
71061	878	8780
71081	878	8780
71101	879	8790
71121	879	8790
71141	879	8790
71161	879	8790
71181	880	8800
71201	880	8800
71221	880	8800
71241	880	8800
71261	880	8800
71281	881	8810
71301	881	8810
71321	881	8810
71341	881	8810
71361	881	8810
71381	882	8820
71401	882	8820
71421	882	8820
71441	882	8820
71461	882	8820
71481	883	8830
71501	883	8830
71521	883	8830
71541	883	8830
71561	883	8830
71581	883	8830
71601	884	8840
71621	884	8840
71641	884	8840
71661	884	8840
71681	884	8840
71701	884	8840
71721	885	8850
71741	885	8850
71761	885	8850
71781	885	8850
71801	885	8850
71821	885	8850
71841	885	8850
71861	885	8850
71881	885	8850
71901	886	8860
71921	886	8860
71941	886	8860
71961	886	8860
71981	886	8860
72001	886	8860
72021	886	8860
72041	886	8860
72061	886	8860
72081	886	8860
72101	886	8860
72121	886	8860
72141	886	8860
72161	886	8860
72181	886	8860
72201	887	8870
72221	887	8870
72241	887	8870
72261	887	8870
72281	887	8870
72301	887	8870
72321	887	8870
72341	887	8870
72361	887	8870
72381	887	8870
72401	887	8870
72421	887	8870
72441	887	8870
72461	887	8870
72481	887	8870
72501	887	8870
72521	888	8880
72541	888	8880
72561	888	8880
72581	888	8880
72601	888	8880
72621	888	8880
72641	888	8880
72661	888	8880
72681	888	8880
72701	888	8880
72721	888	8880
72741	889	8890
72761	889	8890
72781	889	8890
72801	889	8890
72821	889	8890
72841	889	8890
72861	889	8890
72881	889	8890
72901	889	8890
72921	890	8900
72941	890	8900
72961	890	8900
72981	890	8900
73001	890	8900
73021	890	8900
73041	890	8900
73061	891	8910
73081	891	8910
73101	891	8910
73121	891	8910
73141	891	8910
73161	891	8910
73181	892	8920
73201	892	8920
73221	892	8920
73241	892	8920
73261	892	8920
73281	892	8920
73301	892	8920
73321	892	8920
73341	892	8920
73361	892	8920
73381	892	8920
73401	893	8930
73421	893	8930
73441	893	8930
73461	893	8930
73481	893	8930
73501	893	8930
73521	893	8930
73541	893	8930
73561	893	8930
73581	894	8940
73601	894	8940
73621	894	8940
73641	894	8940
73661	894	8940
73681	894	8940
73701	894	8940
73721	894	8940
73741	894	8940
73761	894	8940
73781	895	8950
73801	895	8950
73821	895	8950
73841	895	8950
73861	895	8950
73881	895	8950
73901	895	8950
73921	895	8950
73941	895	8950
73961	896	8960
73981	896	8960
74001	896	8960
74021	896	8960
74041	896	8960
74061	896	8960

