# Spalte1: Wellenlänge [nm]
# Spalte2: Intensität
350	0.351523
351	0.403561
352	0.474904
353	0.553371
354	0.639269
355	0.712010
356	0.776289
357	0.821648
358	0.856496
359	0.892590
360	0.933116
361	0.970924
362	1.006801
363	1.037610
364	1.063680
365	1.085994
366	1.108968
367	1.137899
368	1.163055
369	1.183783
370	1.197730
371	1.212969
372	1.224627
373	1.238164
374	1.240334
375	1.237631
376	1.227051
377	1.213437
378	1.189067
379	1.168118
380	1.130822
381	1.094032
382	1.055389
383	1.014964
384	0.964991
385	0.914034
386	0.862924
387	0.810632
388	0.757319
389	0.702590
390	0.648947
391	0.598566
392	0.550562
393	0.504134
394	0.457604
395	0.410331
396	0.366171
397	0.323500
398	0.281328
399	0.242128
400	0.203905
401	0.168959
402	0.137156
403	0.108487
404	0.083126
405	0.061708
406	0.044077
407	0.029658
408	0.018373
409	0.009965
410	0.004163
411	0.000560
412	0.000000
413	0.000000
414	0.000000
415	0.000104
416	0.001273
417	0.002493
418	0.003454
419	0.004072
420	0.004341
421	0.004301
422	0.004037
423	0.003654
424	0.003239
425	0.002856
426	0.002552
427	0.002344
428	0.002226
429	0.002183
430	0.002188
431	0.002218
432	0.002241
433	0.002235
434	0.002182
435	0.002070
436	0.001906
437	0.001704
438	0.001487
439	0.001278
440	0.001103
441	0.000976
442	0.000905
443	0.000893
444	0.000936
445	0.001025
446	0.001153
447	0.001309
448	0.001484
449	0.001668
450	0.001844
451	0.001997
452	0.002112
453	0.002176
454	0.002181
455	0.002122
456	0.002001
457	0.001825
458	0.001613
459	0.001387
460	0.001171
461	0.000988
462	0.000858
463	0.000797
464	0.000809
465	0.000885
466	0.001013
467	0.001172
468	0.001339
469	0.001493
470	0.001611
471	0.001681
472	0.001696
473	0.001658
474	0.001579
475	0.001476
476	0.001362
477	0.001250
478	0.001151
479	0.001077
480	0.001033
481	0.001020
482	0.001039
483	0.001088
484	0.001159
485	0.001245
486	0.001340
487	0.001435
488	0.001520
489	0.001592
490	0.001648
491	0.001685
492	0.001703
493	0.001698
494	0.001668
495	0.001615
496	0.001539
497	0.001441
498	0.001325
499	0.001201
500	0.001078
501	0.000964
502	0.000868
503	0.000796
504	0.000750
505	0.000729
506	0.000729
507	0.000748
508	0.000781
509	0.000826
510	0.000881
511	0.000943
512	0.001008
513	0.001071
514	0.001129
515	0.001177
516	0.001219
517	0.001257
518	0.001293
519	0.001328
520	0.001361
521	0.001390
522	0.001410
523	0.001416
524	0.001402
525	0.001365
526	0.001310
527	0.001245
528	0.001185
529	0.001143
530	0.001131
531	0.001155
532	0.001214
533	0.001298
534	0.001387
535	0.001461
536	0.001499
537	0.001489
538	0.001427
539	0.001321
540	0.001182
541	0.001026
542	0.000871
543	0.000727
544	0.000606
545	0.000516
546	0.000464
547	0.000450
548	0.000477
549	0.000537
550	0.000622
551	0.000716
552	0.000802
553	0.000859
554	0.000872
555	0.000830
556	0.000734
557	0.000592
558	0.000427
559	0.000265
560	0.000136
561	0.000066
562	0.000068
563	0.000149
564	0.000294
565	0.000475
566	0.000653
567	0.000794
568	0.000881
569	0.000909
570	0.000883
571	0.000808
572	0.000696
573	0.000567
574	0.000448
575	0.000367
576	0.000340
577	0.000377
578	0.000472
579	0.000610
580	0.000768
581	0.000923
582	0.001054
583	0.001148
584	0.001197
585	0.001199
586	0.001158
587	0.001075
588	0.000959
589	0.000821
590	0.000676
591	0.000541
592	0.000435
593	0.000373
594	0.000362
595	0.000400
596	0.000473
597	0.000560
598	0.000637
599	0.000683
600	0.000685
601	0.000639
602	0.000554
603	0.000447
604	0.000342
605	0.000264
606	0.000234
607	0.000261
608	0.000344
609	0.000472
610	0.000625
611	0.000778
612	0.000906
613	0.000989
614	0.001021
615	0.001002
616	0.000941
617	0.000859
618	0.000779
619	0.000727
620	0.000723
621	0.000781
622	0.000903
623	0.001077
624	0.001278
625	0.001465
626	0.001597
627	0.001629
628	0.001540
629	0.001323
630	0.001007
631	0.000641
632	0.000294
633	0.000034
634	0.000000
635	0.000000
636	0.000089
637	0.000338
638	0.000622
639	0.000888
640	0.001099
641	0.001239
642	0.001307
643	0.001312
644	0.001265
645	0.001180
646	0.001071
647	0.000958
648	0.000860
649	0.000794
650	0.000762
651	0.000758
652	0.000765
653	0.000760
654	0.000730
655	0.000670
656	0.000592
657	0.000509
658	0.000437
659	0.000385
660	0.000363
661	0.000372
662	0.000409
663	0.000469
664	0.000542
665	0.000621
666	0.000700
667	0.000781
668	0.000867
669	0.000960
670	0.001053
