# Spalte1: Wellenlänge [nm]
# Spalte2: Intensität
350	1.998410
351	1.826839
352	1.694701
353	1.582591
354	1.505316
355	1.421631
356	1.351060
357	1.277323
358	1.212115
359	1.165644
360	1.134009
361	1.102031
362	1.066611
363	1.022133
364	0.968503
365	0.907403
366	0.844212
367	0.784458
368	0.723156
369	0.663193
370	0.606089
371	0.557627
372	0.515784
373	0.482667
374	0.451865
375	0.424512
376	0.397870
377	0.371857
378	0.342649
379	0.313476
380	0.278666
381	0.243070
382	0.206754
383	0.170743
384	0.135097
385	0.102664
386	0.074426
387	0.050850
388	0.032243
389	0.018662
390	0.009698
391	0.004605
392	0.002521
393	0.002610
394	0.003989
395	0.005899
396	0.007816
397	0.009318
398	0.010135
399	0.010283
400	0.009722
401	0.008667
402	0.007298
403	0.005810
404	0.004383
405	0.003185
406	0.002297
407	0.001724
408	0.001457
409	0.001449
410	0.001634
411	0.001933
412	0.002287
413	0.002622
414	0.002880
415	0.003050
416	0.003100
417	0.003034
418	0.002868
419	0.002633
420	0.002360
421	0.002078
422	0.001818
423	0.001606
424	0.001455
425	0.001376
426	0.001374
427	0.001443
428	0.001568
429	0.001729
430	0.001899
431	0.002054
432	0.002165
433	0.002216
434	0.002198
435	0.002109
436	0.001966
437	0.001791
438	0.001611
439	0.001447
440	0.001322
441	0.001241
442	0.001207
443	0.001214
444	0.001254
445	0.001309
446	0.001365
447	0.001408
448	0.001429
449	0.001421
450	0.001383
451	0.001319
452	0.001237
453	0.001148
454	0.001066
455	0.000998
456	0.000955
457	0.000940
458	0.000959
459	0.001013
460	0.001097
461	0.001202
462	0.001315
463	0.001417
464	0.001484
465	0.001494
466	0.001433
467	0.001296
468	0.001096
469	0.000859
470	0.000619
471	0.000415
472	0.000285
473	0.000257
474	0.000349
475	0.000559
476	0.000871
477	0.001255
478	0.001672
479	0.002080
480	0.002434
481	0.002694
482	0.002835
483	0.002845
484	0.002725
485	0.002497
486	0.002193
487	0.001852
488	0.001511
489	0.001206
490	0.000960
491	0.000788
492	0.000691
493	0.000667
494	0.000704
495	0.000788
496	0.000904
497	0.001030
498	0.001139
499	0.001214
500	0.001231
501	0.001181
502	0.001070
503	0.000917
504	0.000752
505	0.000607
506	0.000507
507	0.000468
508	0.000489
509	0.000556
510	0.000646
511	0.000734
512	0.000800
513	0.000832
514	0.000829
515	0.000798
516	0.000755
517	0.000716
518	0.000696
519	0.000703
520	0.000738
521	0.000795
522	0.000865
523	0.000935
524	0.000994
525	0.001032
526	0.001045
527	0.001028
528	0.000983
529	0.000910
530	0.000810
531	0.000688
532	0.000556
533	0.000425
534	0.000313
535	0.000239
536	0.000215
537	0.000251
538	0.000344
539	0.000488
540	0.000668
541	0.000867
542	0.001069
543	0.001257
544	0.001412
545	0.001518
546	0.001559
547	0.001523
548	0.001407
549	0.001220
550	0.000983
551	0.000721
552	0.000465
553	0.000243
554	0.000075
555	0.000000
556	0.000000
557	0.000000
558	0.000074
559	0.000205
560	0.000360
561	0.000521
562	0.000673
563	0.000799
564	0.000880
565	0.000901
566	0.000863
567	0.000778
568	0.000668
569	0.000547
570	0.000425
571	0.000305
572	0.000194
573	0.000101
574	0.000039
575	0.000019
576	0.000047
577	0.000121
578	0.000234
579	0.000372
580	0.000517
581	0.000652
582	0.000761
583	0.000829
584	0.000848
585	0.000811
586	0.000715
587	0.000563
588	0.000364
589	0.000136
590	0.000000
591	0.000000
592	0.000000
593	0.000000
594	0.000000
595	0.000000
596	0.000000
597	0.000062
598	0.000366
599	0.000669
600	0.000939
601	0.001146
602	0.001272
603	0.001309
604	0.001262
605	0.001145
606	0.000980
607	0.000792
608	0.000606
609	0.000443
610	0.000316
611	0.000232
612	0.000188
613	0.000180
614	0.000195
615	0.000225
616	0.000262
617	0.000304
618	0.000352
619	0.000406
620	0.000465
621	0.000522
622	0.000568
623	0.000598
624	0.000610
625	0.000611
626	0.000615
627	0.000640
628	0.000697
629	0.000787
630	0.000901
631	0.001021
632	0.001129
633	0.001215
634	0.001276
635	0.001315
636	0.001348
637	0.001391
638	0.001470
639	0.001602
640	0.001804
641	0.002073
642	0.002397
643	0.002742
644	0.003075
645	0.003372
646	0.003618
647	0.003814
648	0.003974
649	0.004103
650	0.004201
651	0.004283
652	0.004370
653	0.004480
654	0.004633
655	0.004856
656	0.005160
657	0.005544
658	0.005986
659	0.006455
660	0.006942
661	0.007434
662	0.007920
663	0.008390
664	0.008855
665	0.009303
666	0.009734
667	0.010133
668	0.010453
669	0.010678
670	0.010831
