# Spalte1: Wellenlänge [nm]
# Spalte2: Intensität
350	0.807855
351	0.818615
352	0.857735
353	0.909460
354	0.978503
355	1.036250
356	1.093058
357	1.135879
358	1.176477
359	1.230182
360	1.300619
361	1.377358
362	1.460139
363	1.542752
364	1.623562
365	1.701823
366	1.782355
367	1.872449
368	1.955376
369	2.029073
370	2.089233
371	2.150473
372	2.205631
373	2.266483
374	2.311039
375	2.353122
376	2.388966
377	2.429829
378	2.461148
379	2.512315
380	2.540501
381	2.580400
382	2.624988
383	2.671925
384	2.696731
385	2.717562
386	2.733766
387	2.739261
388	2.731657
389	2.706286
390	2.670690
391	2.634041
392	2.594158
393	2.548651
394	2.490224
395	2.415042
396	2.345790
397	2.274182
398	2.192165
399	2.116926
400	2.028971
401	1.944721
402	1.860496
403	1.772888
404	1.680531
405	1.593392
406	1.514092
407	1.433730
408	1.356821
409	1.281531
410	1.209917
411	1.143233
412	1.086517
413	1.033625
414	0.983400
415	0.943187
416	0.905954
417	0.872339
418	0.842506
419	0.815626
420	0.791046
421	0.767306
422	0.744661
423	0.723318
424	0.702761
425	0.682589
426	0.663029
427	0.644227
428	0.625584
429	0.607396
430	0.589093
431	0.572115
432	0.555469
433	0.539493
434	0.523910
435	0.508205
436	0.492405
437	0.476878
438	0.461693
439	0.446516
440	0.432183
441	0.417609
442	0.403169
443	0.388673
444	0.374218
445	0.359525
446	0.344667
447	0.329545
448	0.314168
449	0.298844
450	0.283027
451	0.267020
452	0.250937
453	0.235111
454	0.220001
455	0.205273
456	0.191244
457	0.177694
458	0.164945
459	0.153031
460	0.141778
461	0.131016
462	0.120831
463	0.111185
464	0.101844
465	0.092601
466	0.083367
467	0.074069
468	0.064820
469	0.055811
470	0.047110
471	0.038915
472	0.031442
473	0.024848
474	0.019317
475	0.014883
476	0.011474
477	0.008968
478	0.007219
479	0.006050
480	0.005278
481	0.004717
482	0.004241
483	0.003763
484	0.003239
485	0.002671
486	0.002092
487	0.001545
488	0.001082
489	0.000747
490	0.000565
491	0.000539
492	0.000651
493	0.000858
494	0.001105
495	0.001335
496	0.001501
497	0.001567
498	0.001515
499	0.001357
500	0.001118
501	0.000838
502	0.000561
503	0.000331
504	0.000177
505	0.000113
506	0.000136
507	0.000227
508	0.000360
509	0.000498
510	0.000613
511	0.000678
512	0.000680
513	0.000616
514	0.000495
515	0.000334
516	0.000158
517	0.000000
518	0.000000
519	0.000000
520	0.000000
521	0.000000
522	0.000032
523	0.000207
524	0.000403
525	0.000593
526	0.000756
527	0.000877
528	0.000949
529	0.000971
530	0.000944
531	0.000874
532	0.000767
533	0.000633
534	0.000479
535	0.000317
536	0.000159
537	0.000020
538	0.000000
539	0.000000
540	0.000000
541	0.000000
542	0.000000
543	0.000000
544	0.000065
545	0.000178
546	0.000296
547	0.000412
548	0.000522
549	0.000617
550	0.000692
551	0.000735
552	0.000738
553	0.000694
554	0.000603
555	0.000470
556	0.000308
557	0.000138
558	0.000000
559	0.000000
560	0.000000
561	0.000000
562	0.000000
563	0.000000
564	0.000008
565	0.000139
566	0.000275
567	0.000382
568	0.000451
569	0.000476
570	0.000462
571	0.000412
572	0.000332
573	0.000237
574	0.000148
575	0.000082
576	0.000057
577	0.000077
578	0.000138
579	0.000226
580	0.000320
581	0.000400
582	0.000449
583	0.000460
584	0.000435
585	0.000384
586	0.000322
587	0.000264
588	0.000224
589	0.000210
590	0.000226
591	0.000269
592	0.000332
593	0.000405
594	0.000474
595	0.000526
596	0.000547
597	0.000529
598	0.000470
599	0.000381
600	0.000276
601	0.000177
602	0.000105
603	0.000075
604	0.000092
605	0.000151
606	0.000237
607	0.000332
608	0.000416
609	0.000473
610	0.000500
611	0.000499
612	0.000483
613	0.000471
614	0.000478
615	0.000510
616	0.000563
617	0.000621
618	0.000662
619	0.000666
620	0.000624
621	0.000540
622	0.000434
623	0.000331
624	0.000260
625	0.000241
626	0.000283
627	0.000383
628	0.000527
629	0.000691
630	0.000847
631	0.000965
632	0.001018
633	0.000991
634	0.000876
635	0.000689
636	0.000457
637	0.000219
638	0.000019
639	0.000000
640	0.000000
641	0.000000
642	0.000000
643	0.000000
644	0.000000
645	0.000000
646	0.000000
647	0.000000
648	0.000000
649	0.000029
650	0.000126
651	0.000275
652	0.000477
653	0.000718
654	0.000966
655	0.001175
656	0.001300
657	0.001312
658	0.001211
659	0.001027
660	0.000814
661	0.000629
662	0.000519
663	0.000509
664	0.000606
665	0.000787
666	0.001018
667	0.001260
668	0.001471
669	0.001627
670	0.001717
