# Spalte1: Wellenlänge [nm]
# Spalte2: Intensität
350	0.088957
351	0.082630
352	0.078746
353	0.076455
354	0.076439
355	0.076548
356	0.077628
357	0.078657
358	0.080274
359	0.083323
360	0.087871
361	0.093066
362	0.098740
363	0.104315
364	0.109522
365	0.114153
366	0.118421
367	0.122749
368	0.126029
369	0.128208
370	0.129183
371	0.130045
372	0.130518
373	0.131457
374	0.131717
375	0.132200
376	0.132748
377	0.134005
378	0.135123
379	0.137644
380	0.139127
381	0.141369
382	0.143870
383	0.146408
384	0.147564
385	0.148282
386	0.148514
387	0.147948
388	0.146502
389	0.143998
390	0.140927
391	0.137852
392	0.134726
393	0.131488
394	0.127810
395	0.123526
396	0.119802
397	0.116202
398	0.112271
399	0.108824
400	0.104786
401	0.100919
402	0.096961
403	0.092687
404	0.088005
405	0.083451
406	0.079206
407	0.074863
408	0.070714
409	0.066709
410	0.062978
411	0.059580
412	0.056760
413	0.054165
414	0.051707
415	0.049752
416	0.047926
417	0.046271
418	0.044814
419	0.043534
420	0.042412
421	0.041379
422	0.040451
423	0.039628
424	0.038869
425	0.038136
426	0.037428
427	0.036743
428	0.036045
429	0.035351
430	0.034631
431	0.033975
432	0.033330
433	0.032716
434	0.032113
435	0.031479
436	0.030804
437	0.030101
438	0.029368
439	0.028588
440	0.027826
441	0.027034
442	0.026258
443	0.025505
444	0.024797
445	0.024114
446	0.023450
447	0.022779
448	0.022077
449	0.021340
450	0.020512
451	0.019605
452	0.018622
453	0.017593
454	0.016562
455	0.015518
456	0.014496
457	0.013494
458	0.012547
459	0.011665
460	0.010843
461	0.010069
462	0.009353
463	0.008689
464	0.008057
465	0.007434
466	0.006810
467	0.006172
468	0.005525
469	0.004881
470	0.004245
471	0.003635
472	0.003073
473	0.002578
474	0.002176
475	0.001875
476	0.001673
477	0.001558
478	0.001513
479	0.001517
480	0.001545
481	0.001570
482	0.001575
483	0.001549
484	0.001488
485	0.001398
486	0.001288
487	0.001166
488	0.001038
489	0.000912
490	0.000789
491	0.000669
492	0.000550
493	0.000432
494	0.000320
495	0.000219
496	0.000137
497	0.000080
498	0.000051
499	0.000051
500	0.000074
501	0.000113
502	0.000156
503	0.000196
504	0.000225
505	0.000241
506	0.000246
507	0.000244
508	0.000242
509	0.000243
510	0.000252
511	0.000267
512	0.000283
513	0.000293
514	0.000290
515	0.000269
516	0.000229
517	0.000172
518	0.000106
519	0.000040
520	0.000000
521	0.000000
522	0.000000
523	0.000000
524	0.000046
525	0.000134
526	0.000237
527	0.000345
528	0.000447
529	0.000534
530	0.000602
531	0.000649
532	0.000675
533	0.000684
534	0.000679
535	0.000663
536	0.000637
537	0.000602
538	0.000558
539	0.000504
540	0.000440
541	0.000364
542	0.000280
543	0.000191
544	0.000102
545	0.000022
546	0.000000
547	0.000000
548	0.000000
549	0.000000
550	0.000000
551	0.000064
552	0.000183
553	0.000322
554	0.000473
555	0.000621
556	0.000755
557	0.000862
558	0.000936
559	0.000972
560	0.000972
561	0.000944
562	0.000898
563	0.000842
564	0.000781
565	0.000720
566	0.000664
567	0.000622
568	0.000596
569	0.000582
570	0.000578
571	0.000574
572	0.000562
573	0.000537
574	0.000497
575	0.000446
576	0.000386
577	0.000324
578	0.000269
579	0.000226
580	0.000202
581	0.000199
582	0.000219
583	0.000260
584	0.000316
585	0.000383
586	0.000451
587	0.000512
588	0.000559
589	0.000587
590	0.000593
591	0.000577
592	0.000543
593	0.000495
594	0.000439
595	0.000381
596	0.000326
597	0.000276
598	0.000233
599	0.000199
600	0.000174
601	0.000160
602	0.000158
603	0.000171
604	0.000203
605	0.000255
606	0.000330
607	0.000425
608	0.000534
609	0.000650
610	0.000761
611	0.000855
612	0.000919
613	0.000947
614	0.000935
615	0.000888
616	0.000811
617	0.000720
618	0.000633
619	0.000565
620	0.000529
621	0.000535
622	0.000581
623	0.000661
624	0.000762
625	0.000867
626	0.000960
627	0.001028
628	0.001065
629	0.001067
630	0.001042
631	0.000998
632	0.000949
633	0.000907
634	0.000882
635	0.000878
636	0.000897
637	0.000933
638	0.000977
639	0.001017
640	0.001038
641	0.001029
642	0.000979
643	0.000888
644	0.000761
645	0.000615
646	0.000473
647	0.000364
648	0.000313
649	0.000344
650	0.000464
651	0.000669
652	0.000937
653	0.001235
654	0.001518
655	0.001742
656	0.001872
657	0.001884
658	0.001772
659	0.001553
660	0.001267
661	0.000964
662	0.000702
663	0.000529
664	0.000480
665	0.000557
666	0.000734
667	0.000963
668	0.001182
669	0.001333
670	0.001385
