# Spalte1: Wellenlänge [nm]
# Spalte2: Intensität
350	0.264096
351	0.250449
352	0.243637
353	0.240300
354	0.242348
355	0.243051
356	0.245400
357	0.246572
358	0.248988
359	0.255415
360	0.265977
361	0.277920
362	0.290638
363	0.302449
364	0.312750
365	0.321276
366	0.329047
367	0.337608
368	0.344240
369	0.349086
370	0.351937
371	0.355654
372	0.359269
373	0.364865
374	0.368925
375	0.373656
376	0.378382
377	0.384794
378	0.390427
379	0.399779
380	0.405865
381	0.414025
382	0.422978
383	0.432228
384	0.437745
385	0.442462
386	0.446362
387	0.448585
388	0.448886
389	0.446636
390	0.443156
391	0.439991
392	0.436756
393	0.432962
394	0.427198
395	0.418580
396	0.410835
397	0.402382
398	0.391660
399	0.381668
400	0.368891
401	0.356326
402	0.343415
403	0.329655
404	0.314904
405	0.301124
406	0.288899
407	0.276552
408	0.264893
409	0.253469
410	0.242555
411	0.232298
412	0.223665
413	0.215391
414	0.207260
415	0.200924
416	0.195033
417	0.189854
418	0.185557
419	0.182061
420	0.179287
421	0.176928
422	0.175031
423	0.173597
424	0.172436
425	0.171368
426	0.170357
427	0.169356
428	0.168147
429	0.166775
430	0.165078
431	0.163497
432	0.161835
433	0.160276
434	0.158827
435	0.157413
436	0.156088
437	0.154996
438	0.154170
439	0.153491
440	0.153222
441	0.152950
442	0.152763
443	0.152539
444	0.152270
445	0.151802
446	0.151135
447	0.150213
448	0.149039
449	0.147778
450	0.146180
451	0.144396
452	0.142470
453	0.140552
454	0.138872
455	0.137166
456	0.135556
457	0.133796
458	0.132024
459	0.130224
460	0.128242
461	0.125944
462	0.123476
463	0.120935
464	0.118258
465	0.115393
466	0.112375
467	0.109187
468	0.105975
469	0.102935
470	0.099958
471	0.097072
472	0.094309
473	0.091601
474	0.089093
475	0.086824
476	0.084650
477	0.082378
478	0.079995
479	0.077501
480	0.074901
481	0.072098
482	0.069171
483	0.066180
484	0.063122
485	0.060107
486	0.057270
487	0.054613
488	0.052108
489	0.049842
490	0.047793
491	0.045961
492	0.044278
493	0.042651
494	0.041014
495	0.039383
496	0.037760
497	0.036103
498	0.034360
499	0.032667
500	0.030987
501	0.029323
502	0.027692
503	0.026128
504	0.024680
505	0.023299
506	0.021968
507	0.020646
508	0.019301
509	0.017916
510	0.016516
511	0.015123
512	0.013767
513	0.012475
514	0.011270
515	0.010170
516	0.009200
517	0.008360
518	0.007639
519	0.007015
520	0.006467
521	0.005973
522	0.005518
523	0.005078
524	0.004639
525	0.004190
526	0.003735
527	0.003283
528	0.002852
529	0.002458
530	0.002114
531	0.001831
532	0.001613
533	0.001456
534	0.001349
535	0.001278
536	0.001226
537	0.001179
538	0.001125
539	0.001060
540	0.000982
541	0.000896
542	0.000810
543	0.000734
544	0.000673
545	0.000632
546	0.000609
547	0.000600
548	0.000600
549	0.000606
550	0.000614
551	0.000623
552	0.000631
553	0.000634
554	0.000627
555	0.000606
556	0.000570
557	0.000523
558	0.000474
559	0.000435
560	0.000417
561	0.000430
562	0.000476
563	0.000547
564	0.000627
565	0.000690
566	0.000721
567	0.000716
568	0.000685
569	0.000640
570	0.000597
571	0.000562
572	0.000541
573	0.000535
574	0.000546
575	0.000571
576	0.000608
577	0.000652
578	0.000699
579	0.000744
580	0.000779
581	0.000799
582	0.000802
583	0.000791
584	0.000772
585	0.000753
586	0.000743
587	0.000743
588	0.000749
589	0.000750
590	0.000732
591	0.000685
592	0.000605
593	0.000501
594	0.000390
595	0.000293
596	0.000228
597	0.000206
598	0.000230
599	0.000291
600	0.000377
601	0.000475
602	0.000576
603	0.000672
604	0.000757
605	0.000824
606	0.000863
607	0.000863
608	0.000820
609	0.000733
610	0.000611
611	0.000473
612	0.000344
613	0.000250
614	0.000210
615	0.000236
616	0.000331
617	0.000484
618	0.000676
619	0.000880
620	0.001066
621	0.001206
622	0.001278
623	0.001273
624	0.001201
625	0.001083
626	0.000947
627	0.000817
628	0.000711
629	0.000637
630	0.000596
631	0.000589
632	0.000614
633	0.000670
634	0.000747
635	0.000831
636	0.000905
637	0.000954
638	0.000969
639	0.000953
640	0.000917
641	0.000876
642	0.000843
643	0.000825
644	0.000819
645	0.000822
646	0.000823
647	0.000817
648	0.000805
649	0.000794
650	0.000794
651	0.000820
652	0.000881
653	0.000973
654	0.001079
655	0.001170
656	0.001214
657	0.001182
658	0.001058
659	0.000850
660	0.000595
661	0.000347
662	0.000169
663	0.000120
664	0.000236
665	0.000522
666	0.000947
667	0.001454
668	0.001958
669	0.002369
670	0.002610
