# Spalte1: Wellenlänge [nm]
# Spalte2: Intensität
350	0.539211
351	0.523957
352	0.527193
353	0.541509
354	0.570615
355	0.597748
356	0.628196
357	0.652961
358	0.676878
359	0.707020
360	0.743937
361	0.780225
362	0.814898
363	0.844141
364	0.867256
365	0.884404
366	0.899072
367	0.915785
368	0.927238
369	0.933904
370	0.935324
371	0.939273
372	0.943384
373	0.953380
374	0.960236
375	0.969703
376	0.979765
377	0.994295
378	1.006255
379	1.026598
380	1.036894
381	1.050602
382	1.064507
383	1.077676
384	1.080586
385	1.081153
386	1.079803
387	1.074778
388	1.065683
389	1.051098
390	1.034055
391	1.017937
392	1.001574
393	0.983626
394	0.960814
395	0.931278
396	0.903516
397	0.874218
398	0.840375
399	0.808810
400	0.772384
401	0.737754
402	0.703880
403	0.669762
404	0.635076
405	0.603668
406	0.576480
407	0.549946
408	0.525536
409	0.502248
410	0.480562
411	0.460719
412	0.444610
413	0.429708
414	0.415534
415	0.405344
416	0.396389
417	0.389166
418	0.384007
419	0.380740
420	0.379209
421	0.378770
422	0.379516
423	0.381424
424	0.384052
425	0.386954
426	0.389993
427	0.393019
428	0.395479
429	0.397424
430	0.398412
431	0.399437
432	0.399962
433	0.400375
434	0.400648
435	0.400540
436	0.400209
437	0.400068
438	0.400289
439	0.400661
440	0.401992
441	0.403304
442	0.404900
443	0.406520
444	0.408166
445	0.409425
446	0.410268
447	0.410496
448	0.410045
449	0.409285
450	0.407446
451	0.404870
452	0.401645
453	0.398192
454	0.395224
455	0.392091
456	0.389242
457	0.386074
458	0.383049
459	0.380136
460	0.376846
461	0.372682
462	0.367953
463	0.362823
464	0.356996
465	0.350239
466	0.342623
467	0.334086
468	0.325100
469	0.316305
470	0.307442
471	0.298645
472	0.290079
473	0.281576
474	0.273634
475	0.266398
476	0.259461
477	0.252239
478	0.244704
479	0.236858
480	0.228699
481	0.219901
482	0.210671
483	0.201152
484	0.191298
485	0.181423
486	0.171939
487	0.162877
488	0.154203
489	0.146246
490	0.139001
491	0.132511
492	0.126603
493	0.121003
494	0.115477
495	0.110008
496	0.104535
497	0.098874
498	0.092839
499	0.086784
500	0.080599
501	0.074327
502	0.068062
503	0.061953
504	0.056185
505	0.050701
506	0.045532
507	0.040638
508	0.035997
509	0.031603
510	0.027518
511	0.023780
512	0.020439
513	0.017531
514	0.015073
515	0.013058
516	0.011470
517	0.010240
518	0.009279
519	0.008489
520	0.007781
521	0.007091
522	0.006385
523	0.005642
524	0.004867
525	0.004086
526	0.003336
527	0.002654
528	0.002076
529	0.001621
530	0.001292
531	0.001085
532	0.000984
533	0.000963
534	0.000994
535	0.001048
536	0.001096
537	0.001117
538	0.001098
539	0.001036
540	0.000934
541	0.000807
542	0.000674
543	0.000557
544	0.000474
545	0.000435
546	0.000444
547	0.000489
548	0.000552
549	0.000612
550	0.000648
551	0.000646
552	0.000604
553	0.000528
554	0.000434
555	0.000336
556	0.000250
557	0.000184
558	0.000144
559	0.000126
560	0.000128
561	0.000145
562	0.000174
563	0.000210
564	0.000252
565	0.000294
566	0.000334
567	0.000373
568	0.000410
569	0.000444
570	0.000473
571	0.000492
572	0.000495
573	0.000479
574	0.000448
575	0.000407
576	0.000364
577	0.000325
578	0.000295
579	0.000277
580	0.000268
581	0.000268
582	0.000273
583	0.000284
584	0.000303
585	0.000334
586	0.000379
587	0.000435
588	0.000497
589	0.000556
590	0.000603
591	0.000628
592	0.000630
593	0.000607
594	0.000563
595	0.000503
596	0.000432
597	0.000351
598	0.000264
599	0.000174
600	0.000088
601	0.000016
602	0.000000
603	0.000000
604	0.000005
605	0.000079
606	0.000183
607	0.000293
608	0.000387
609	0.000447
610	0.000467
611	0.000451
612	0.000410
613	0.000360
614	0.000316
615	0.000289
616	0.000289
617	0.000317
618	0.000372
619	0.000445
620	0.000521
621	0.000579
622	0.000598
623	0.000564
624	0.000473
625	0.000333
626	0.000165
627	0.000010
628	0.000000
629	0.000000
630	0.000000
631	0.000000
632	0.000032
633	0.000231
634	0.000428
635	0.000577
636	0.000638
637	0.000598
638	0.000466
639	0.000278
640	0.000084
641	0.000000
642	0.000000
643	0.000000
644	0.000000
645	0.000064
646	0.000215
647	0.000365
648	0.000501
649	0.000614
650	0.000701
651	0.000764
652	0.000810
653	0.000842
654	0.000867
655	0.000889
656	0.000913
657	0.000938
658	0.000962
659	0.000981
660	0.000994
661	0.000997
662	0.000990
663	0.000973
664	0.000951
665	0.000928
666	0.000912
667	0.000908
668	0.000919
669	0.000948
670	0.000993
