# Spalte1: Wellenlänge [nm]
# Spalte2: Intensität
350	0.006852
351	0.005602
352	0.004662
353	0.004041
354	0.003714
355	0.003461
356	0.003202
357	0.002807
358	0.002294
359	0.001731
360	0.001184
361	0.000730
362	0.000454
363	0.000402
364	0.000577
365	0.000948
366	0.001445
367	0.002004
368	0.002538
369	0.002979
370	0.003273
371	0.003418
372	0.003397
373	0.003233
374	0.002918
375	0.002507
376	0.002037
377	0.001566
378	0.001137
379	0.000813
380	0.000624
381	0.000621
382	0.000814
383	0.001193
384	0.001709
385	0.002303
386	0.002887
387	0.003360
388	0.003628
389	0.003606
390	0.003273
391	0.002654
392	0.001795
393	0.000781
394	0.000000
395	0.000000
396	0.000000
397	0.000000
398	0.000000
399	0.000000
400	0.000000
401	0.000000
402	0.000000
403	0.000000
404	0.000000
405	0.000000
406	0.000045
407	0.000249
408	0.000382
409	0.000445
410	0.000456
411	0.000440
412	0.000421
413	0.000420
414	0.000455
415	0.000535
416	0.000653
417	0.000793
418	0.000930
419	0.001040
420	0.001102
421	0.001105
422	0.001049
423	0.000952
424	0.000838
425	0.000732
426	0.000662
427	0.000649
428	0.000699
429	0.000814
430	0.000982
431	0.001187
432	0.001406
433	0.001618
434	0.001804
435	0.001949
436	0.002046
437	0.002101
438	0.002124
439	0.002132
440	0.002146
441	0.002180
442	0.002245
443	0.002341
444	0.002462
445	0.002590
446	0.002710
447	0.002808
448	0.002879
449	0.002929
450	0.002964
451	0.003001
452	0.003054
453	0.003137
454	0.003261
455	0.003426
456	0.003636
457	0.003893
458	0.004208
459	0.004592
460	0.005042
461	0.005553
462	0.006114
463	0.006704
464	0.007282
465	0.007795
466	0.008196
467	0.008441
468	0.008517
469	0.008442
470	0.008253
471	0.008031
472	0.007892
473	0.007968
474	0.008426
475	0.009408
476	0.011008
477	0.013264
478	0.016177
479	0.019698
480	0.023749
481	0.028175
482	0.032886
483	0.037831
484	0.042970
485	0.048397
486	0.054331
487	0.060955
488	0.068432
489	0.077082
490	0.087084
491	0.098596
492	0.111580
493	0.125797
494	0.140894
495	0.156756
496	0.173312
497	0.190381
498	0.207713
499	0.226284
500	0.246216
501	0.267850
502	0.291637
503	0.318262
504	0.348875
505	0.383514
506	0.422607
507	0.465953
508	0.513041
509	0.562933
510	0.615284
511	0.669201
512	0.723906
513	0.778481
514	0.831900
515	0.883278
516	0.933662
517	0.983080
518	1.031651
519	1.079046
520	1.125415
521	1.171338
522	1.218553
523	1.266441
524	1.314484
525	1.361491
526	1.406829
527	1.449751
528	1.491847
529	1.533040
530	1.572266
531	1.610181
532	1.648100
533	1.684341
534	1.720028
535	1.754305
536	1.785328
537	1.813472
538	1.837311
539	1.858138
540	1.873686
541	1.884074
542	1.891707
543	1.897110
544	1.900241
545	1.904292
546	1.910113
547	1.916059
548	1.922243
549	1.930627
550	1.941540
551	1.953117
552	1.966698
553	1.978856
554	1.989123
555	1.995291
556	2.000384
557	2.004890
558	2.012581
559	2.022834
560	2.037883
561	2.064601
562	2.109682
563	2.163689
564	2.211049
565	2.230082
566	2.217392
567	2.183212
568	2.148744
569	2.128044
570	2.131395
571	2.155321
572	2.189320
573	2.227362
574	2.269854
575	2.314737
576	2.363456
577	2.413863
578	2.469000
579	2.529680
580	2.594115
581	2.661371
582	2.730893
583	2.802813
584	2.874902
585	2.947214
586	3.020290
587	3.090817
588	3.157213
589	3.220897
590	3.280269
591	3.334609
592	3.383570
593	3.425383
594	3.461661
595	3.491671
596	3.514837
597	3.531109
598	3.542118
599	3.550052
600	3.552267
601	3.547973
602	3.539996
603	3.529968
604	3.514994
605	3.498249
606	3.482827
607	3.467019
608	3.453112
609	3.438836
610	3.427253
611	3.412901
612	3.397308
613	3.380224
614	3.365019
615	3.345666
616	3.321492
617	3.292012
618	3.260200
619	3.223452
620	3.185743
621	3.149834
622	3.115742
623	3.081425
624	3.051256
625	3.023169
626	2.995924
627	2.970821
628	2.945150
629	2.914914
630	2.876832
631	2.828033
632	2.764640
633	2.689396
634	2.602981
635	2.508475
636	2.408858
637	2.307291
638	2.203725
639	2.097481
640	1.985931
641	1.865754
642	1.734917
643	1.591147
644	1.435832
645	1.273145
646	1.105714
647	0.939336
648	0.779675
649	0.631541
650	0.498624
651	0.386027
652	0.296244
653	0.228326
654	0.179908
655	0.147203
656	0.125431
657	0.109991
658	0.096752
659	0.083056
660	0.068078
661	0.052162
662	0.036572
663	0.022869
664	0.012496
665	0.006127
666	0.003634
667	0.004217
668	0.006651
669	0.009620
670	0.012045
