# Spalte1: Wellenlänge [nm]
# Spalte2: Intensität
350	0.025115
351	0.016525
352	0.007711
353	0.000353
354	0.000000
355	0.000000
356	0.000000
357	0.000000
358	0.000000
359	0.000000
360	0.000000
361	0.000000
362	0.000000
363	0.000000
364	0.000000
365	0.002325
366	0.005520
367	0.008128
368	0.010002
369	0.011053
370	0.011277
371	0.010842
372	0.009837
373	0.008479
374	0.006886
375	0.005309
376	0.003899
377	0.002791
378	0.002007
379	0.001553
380	0.001341
381	0.001313
382	0.001378
383	0.001464
384	0.001506
385	0.001479
386	0.001363
387	0.001151
388	0.000844
389	0.000458
390	0.000051
391	0.000000
392	0.000000
393	0.000000
394	0.000000
395	0.000000
396	0.000000
397	0.000018
398	0.000527
399	0.001011
400	0.001348
401	0.001480
402	0.001386
403	0.001095
404	0.000670
405	0.000202
406	0.000000
407	0.000000
408	0.000000
409	0.000000
410	0.000000
411	0.000000
412	0.000000
413	0.000170
414	0.000474
415	0.000756
416	0.000992
417	0.001168
418	0.001273
419	0.001305
420	0.001266
421	0.001168
422	0.001023
423	0.000850
424	0.000664
425	0.000478
426	0.000310
427	0.000179
428	0.000115
429	0.000150
430	0.000318
431	0.000650
432	0.001151
433	0.001806
434	0.002575
435	0.003381
436	0.004129
437	0.004714
438	0.005040
439	0.005019
440	0.004625
441	0.003876
442	0.002879
443	0.001808
444	0.000923
445	0.000523
446	0.000916
447	0.002373
448	0.005096
449	0.009182
450	0.014506
451	0.020836
452	0.027825
453	0.035081
454	0.042265
455	0.049015
456	0.055239
457	0.060929
458	0.066494
459	0.072575
460	0.079945
461	0.089494
462	0.102309
463	0.119443
464	0.141536
465	0.168718
466	0.200802
467	0.237023
468	0.276564
469	0.318664
470	0.361721
471	0.404670
472	0.446890
473	0.487804
474	0.528583
475	0.570722
476	0.615073
477	0.662076
478	0.713386
479	0.770655
480	0.835424
481	0.907060
482	0.986069
483	1.072028
484	1.162566
485	1.256415
486	1.352869
487	1.448648
488	1.539790
489	1.626594
490	1.707824
491	1.784518
492	1.856751
493	1.924099
494	1.987315
495	2.050552
496	2.116983
497	2.186093
498	2.254534
499	2.329827
500	2.407371
501	2.484292
502	2.558755
503	2.631500
504	2.707575
505	2.783849
506	2.861966
507	2.940693
508	3.018738
509	3.094391
510	3.170482
511	3.246792
512	3.323460
513	3.399309
514	3.471924
515	3.538711
516	3.603901
517	3.666556
518	3.725769
519	3.779068
520	3.826059
521	3.868140
522	3.910635
523	3.951383
524	3.989154
525	4.021205
526	4.046844
527	4.065133
528	4.081393
529	4.095722
530	4.105362
531	4.112090
532	4.119272
533	4.122956
534	4.126691
535	4.129584
536	4.128895
537	4.127288
538	4.123104
539	4.120378
540	4.114465
541	4.105227
542	4.096546
543	4.087383
544	4.075017
545	4.063619
546	4.052716
547	4.037387
548	4.017595
549	3.998227
550	3.981512
551	3.965592
552	3.955137
553	3.944761
554	3.934440
555	3.919894
556	3.906342
557	3.893257
558	3.886018
559	3.881252
560	3.881296
561	3.897634
562	3.941636
563	3.995039
564	4.029929
565	4.009514
566	3.931781
567	3.818584
568	3.708998
569	3.627157
570	3.588985
571	3.586220
572	3.598992
573	3.615263
574	3.633872
575	3.649989
576	3.664927
577	3.675039
578	3.685436
579	3.698236
580	3.712173
581	3.727512
582	3.744980
583	3.765779
584	3.787286
585	3.809334
586	3.831736
587	3.849034
588	3.858071
589	3.859879
590	3.852567
591	3.836486
592	3.813654
593	3.785514
594	3.757547
595	3.731777
596	3.708799
597	3.687496
598	3.666127
599	3.641398
600	3.604515
601	3.549204
602	3.474070
603	3.379007
604	3.261857
605	3.128138
606	2.984240
607	2.833562
608	2.682853
609	2.534764
610	2.394916
611	2.260515
612	2.131279
613	2.002656
614	1.869656
615	1.721236
616	1.550367
617	1.354743
618	1.138092
619	0.907050
620	0.675825
621	0.459367
622	0.272240
623	0.124636
624	0.023677
625	0.000000
626	0.000000
627	0.000000
628	0.000000
629	0.031369
630	0.058860
631	0.073474
632	0.073087
633	0.059877
634	0.038318
635	0.014357
636	0.000000
637	0.000000
638	0.000000
639	0.000000
640	0.000000
641	0.000000
642	0.003192
643	0.010715
644	0.014388
645	0.014157
646	0.010841
647	0.005824
648	0.000648
649	0.000000
650	0.000000
651	0.000000
652	0.000000
653	0.000000
654	0.000303
655	0.002282
656	0.003414
657	0.003518
658	0.002783
659	0.001571
660	0.000300
661	0.000000
662	0.000000
663	0.000000
664	0.000000
665	0.000201
666	0.000955
667	0.001539
668	0.001847
669	0.001867
670	0.001671
