# Spalte1: Wellenlänge [nm]
# Spalte2: Intensität
350	0.006833
351	0.005587
352	0.004651
353	0.004033
354	0.003708
355	0.003457
356	0.003198
357	0.002804
358	0.002292
359	0.001729
360	0.001183
361	0.000730
362	0.000454
363	0.000401
364	0.000577
365	0.000947
366	0.001444
367	0.002002
368	0.002537
369	0.002978
370	0.003272
371	0.003417
372	0.003396
373	0.003232
374	0.002918
375	0.002507
376	0.002038
377	0.001567
378	0.001138
379	0.000814
380	0.000625
381	0.000621
382	0.000814
383	0.001193
384	0.001708
385	0.002302
386	0.002886
387	0.003358
388	0.003626
389	0.003605
390	0.003272
391	0.002654
392	0.001796
393	0.000782
394	0.000000
395	0.000000
396	0.000000
397	0.000000
398	0.000000
399	0.000000
400	0.000000
401	0.000000
402	0.000000
403	0.000000
404	0.000000
405	0.000000
406	0.000047
407	0.000252
408	0.000384
409	0.000447
410	0.000458
411	0.000440
412	0.000420
413	0.000418
414	0.000452
415	0.000531
416	0.000648
417	0.000788
418	0.000925
419	0.001035
420	0.001098
421	0.001101
422	0.001045
423	0.000949
424	0.000835
425	0.000729
426	0.000659
427	0.000645
428	0.000694
429	0.000807
430	0.000973
431	0.001177
432	0.001394
433	0.001605
434	0.001789
435	0.001932
436	0.002028
437	0.002082
438	0.002106
439	0.002112
440	0.002126
441	0.002159
442	0.002221
443	0.002315
444	0.002433
445	0.002558
446	0.002675
447	0.002770
448	0.002838
449	0.002885
450	0.002918
451	0.002954
452	0.003005
453	0.003087
454	0.003211
455	0.003373
456	0.003581
457	0.003834
458	0.004144
459	0.004518
460	0.004956
461	0.005451
462	0.005994
463	0.006564
464	0.007121
465	0.007616
466	0.008003
467	0.008240
468	0.008314
469	0.008244
470	0.008064
471	0.007853
472	0.007722
473	0.007797
474	0.008240
475	0.009188
476	0.010731
477	0.012908
478	0.015719
479	0.019120
480	0.023036
481	0.027319
482	0.031882
483	0.036674
484	0.041654
485	0.046910
486	0.052648
487	0.059037
488	0.066233
489	0.074538
490	0.084121
491	0.095138
492	0.107550
493	0.121133
494	0.135551
495	0.150697
496	0.166505
497	0.182800
498	0.199337
499	0.217045
500	0.236030
501	0.256607
502	0.279196
503	0.304443
504	0.333438
505	0.366209
506	0.403162
507	0.444101
508	0.488538
509	0.535582
510	0.584900
511	0.635640
512	0.687048
513	0.738244
514	0.788242
515	0.836192
516	0.883081
517	0.928934
518	0.973869
519	1.017589
520	1.060249
521	1.102415
522	1.145734
523	1.189629
524	1.233614
525	1.276567
526	1.317885
527	1.356856
528	1.394953
529	1.432089
530	1.467260
531	1.501079
532	1.534778
533	1.566807
534	1.598230
535	1.628274
536	1.655251
537	1.679524
538	1.699786
539	1.717238
540	1.729783
541	1.737530
542	1.742693
543	1.745752
544	1.746665
545	1.748370
546	1.751653
547	1.755012
548	1.758568
549	1.764127
550	1.771992
551	1.780459
552	1.790740
553	1.799705
554	1.806919
555	1.810371
556	1.812804
557	1.814654
558	1.819331
559	1.826262
560	1.837460
561	1.859107
562	1.897193
563	1.943187
564	1.983098
565	1.997533
566	1.983549
567	1.950393
568	1.917048
569	1.896030
570	1.896431
571	1.915074
572	1.942560
573	1.973509
574	2.008268
575	2.045008
576	2.085003
577	2.126349
578	2.171722
579	2.221819
580	2.275047
581	2.330565
582	2.387866
583	2.447044
584	2.506134
585	2.565170
586	2.624616
587	2.681591
588	2.734737
589	2.785310
590	2.831953
591	2.874074
592	2.911406
593	2.942450
594	2.968619
595	2.989296
596	3.004000
597	3.012703
598	3.016811
599	3.018211
600	3.014679
601	3.005588
602	2.993378
603	2.979463
604	2.961424
605	2.941955
606	2.923650
607	2.905046
608	2.888030
609	2.870673
610	2.855512
611	2.837993
612	2.819414
613	2.799600
614	2.781379
615	2.759797
616	2.734342
617	2.704642
618	2.673147
619	2.637715
620	2.601576
621	2.566953
622	2.533828
623	2.500529
624	2.470617
625	2.442432
626	2.415004
627	2.389412
628	2.363484
629	2.334023
630	2.298408
631	2.254355
632	2.198797
633	2.133952
634	2.060407
635	1.980657
636	1.897131
637	1.812381
638	1.726444
639	1.638831
640	1.547546
641	1.450024
642	1.344735
643	1.229952
644	1.106816
645	0.978595
646	0.847362
647	0.717610
648	0.593664
649	0.479193
650	0.376941
651	0.290704
652	0.222252
653	0.170724
654	0.134200
655	0.109682
656	0.093454
657	0.081972
658	0.072084
659	0.061791
660	0.050491
661	0.038479
662	0.026739
663	0.016465
664	0.008744
665	0.004069
666	0.002319
667	0.002866
668	0.004770
669	0.007029
670	0.008834
