# Spalte1: Wellenlänge [nm]
# Spalte2: Intensität
350	0.037134
351	0.031222
352	0.025961
353	0.021337
354	0.017679
355	0.014528
356	0.012121
357	0.010260
358	0.008945
359	0.008132
360	0.007677
361	0.007380
362	0.007123
363	0.006783
364	0.006299
365	0.005652
366	0.004893
367	0.004102
368	0.003323
369	0.002660
370	0.002184
371	0.001938
372	0.001895
373	0.002006
374	0.002157
375	0.002262
376	0.002226
377	0.001984
378	0.001480
379	0.000711
380	0.000000
381	0.000000
382	0.000000
383	0.000000
384	0.000000
385	0.000000
386	0.000000
387	0.000000
388	0.000000
389	0.000000
390	0.000000
391	0.000000
392	0.000000
393	0.000000
394	0.001552
395	0.002906
396	0.003846
397	0.004339
398	0.004399
399	0.004125
400	0.003551
401	0.002781
402	0.001875
403	0.000889
404	0.000000
405	0.000000
406	0.000000
407	0.000000
408	0.000000
409	0.000000
410	0.000000
411	0.000000
412	0.000000
413	0.000000
414	0.000000
415	0.000220
416	0.001026
417	0.001701
418	0.002222
419	0.002595
420	0.002832
421	0.002948
422	0.002961
423	0.002898
424	0.002784
425	0.002649
426	0.002532
427	0.002469
428	0.002488
429	0.002607
430	0.002824
431	0.003130
432	0.003489
433	0.003868
434	0.004233
435	0.004556
436	0.004830
437	0.005064
438	0.005279
439	0.005496
440	0.005753
441	0.006054
442	0.006418
443	0.006847
444	0.007345
445	0.007908
446	0.008539
447	0.009242
448	0.010020
449	0.010881
450	0.011787
451	0.012714
452	0.013625
453	0.014488
454	0.015292
455	0.015991
456	0.016599
457	0.017109
458	0.017580
459	0.018079
460	0.018669
461	0.019425
462	0.020464
463	0.021899
464	0.023794
465	0.026162
466	0.028993
467	0.032207
468	0.035725
469	0.039463
470	0.043221
471	0.046857
472	0.050273
473	0.053390
474	0.056339
475	0.059327
476	0.062532
477	0.066138
478	0.070473
479	0.075857
480	0.082574
481	0.090610
482	0.100010
483	0.110678
484	0.122298
485	0.134676
486	0.147719
487	0.161097
488	0.174421
489	0.187789
490	0.201108
491	0.214514
492	0.227989
493	0.241414
494	0.254777
495	0.268540
496	0.283110
497	0.298477
498	0.314267
499	0.331628
500	0.350024
501	0.369043
502	0.388330
503	0.407866
504	0.428330
505	0.449222
506	0.470920
507	0.493500
508	0.517172
509	0.542135
510	0.569352
511	0.599177
512	0.631851
513	0.667127
514	0.704234
515	0.742071
516	0.780775
517	0.819379
518	0.856960
519	0.892402
520	0.925389
521	0.956458
522	0.987596
523	1.019321
524	1.052572
525	1.087896
526	1.126210
527	1.168054
528	1.215407
529	1.268405
530	1.325797
531	1.387178
532	1.452276
533	1.517884
534	1.583174
535	1.645841
536	1.703311
537	1.756142
538	1.804448
539	1.852221
540	1.900817
541	1.954148
542	2.017949
543	2.094709
544	2.184199
545	2.287558
546	2.401390
547	2.517776
548	2.630656
549	2.737869
550	2.837643
551	2.927939
552	3.014198
553	3.096714
554	3.181112
555	3.270054
556	3.373713
557	3.497071
558	3.649777
559	3.833057
560	4.052076
561	4.321087
562	4.655250
563	5.033820
564	5.415135
565	5.733493
566	5.963038
567	6.117416
568	6.250265
569	6.405158
570	6.620285
571	6.892643
572	7.192621
573	7.499077
574	7.808446
575	8.106694
576	8.391143
577	8.647348
578	8.881472
579	9.094780
580	9.282358
581	9.445327
582	9.589322
583	9.724162
584	9.851766
585	9.981263
586	10.121274
587	10.264530
588	10.406591
589	10.549494
590	10.683564
591	10.801518
592	10.898145
593	10.965346
594	11.008188
595	11.025975
596	11.019515
597	10.991492
598	10.949403
599	10.901460
600	10.840296
601	10.764000
602	10.681658
603	10.598647
604	10.506955
605	10.416935
606	10.338630
607	10.267214
608	10.209558
609	10.159060
610	10.125075
611	10.091913
612	10.065083
613	10.045473
614	10.044155
615	10.044338
616	10.045150
617	10.045137
618	10.053403
619	10.062066
620	10.081747
621	10.118926
622	10.169701
623	10.221231
624	10.280769
625	10.334685
626	10.373749
627	10.399616
628	10.404186
629	10.375601
630	10.305688
631	10.186247
632	10.003316
633	9.764665
634	9.468601
635	9.122811
636	8.735221
637	8.319049
638	7.878712
639	7.421427
640	6.949503
641	6.462798
642	5.963773
643	5.448259
644	4.920099
645	4.387266
646	3.849966
647	3.318660
648	2.804854
649	2.319069
650	1.871301
651	1.479471
652	1.155020
653	0.899100
654	0.708118
655	0.573451
656	0.481180
657	0.416059
658	0.362480
659	0.308991
660	0.250530
661	0.186806
662	0.122135
663	0.063176
664	0.016988
665	0.000000
666	0.000000
667	0.000000
668	0.000000
669	0.009239
670	0.022758
