# Spalte1: Wellenlänge [nm]
# Spalte2: Intensität
350	0.685646
351	0.587178
352	0.498958
353	0.419546
354	0.355763
355	0.299661
356	0.257386
357	0.226075
358	0.206543
359	0.198481
360	0.199220
361	0.204324
362	0.211135
363	0.216586
364	0.218786
365	0.216463
366	0.209883
367	0.200059
368	0.185839
369	0.168484
370	0.149552
371	0.131838
372	0.116152
373	0.104175
374	0.095360
375	0.090399
376	0.088785
377	0.090327
378	0.093573
379	0.098738
380	0.103327
381	0.107961
382	0.111810
383	0.114440
384	0.114666
385	0.113335
386	0.110754
387	0.107154
388	0.102994
389	0.098672
390	0.094914
391	0.092270
392	0.090701
393	0.090018
394	0.089702
395	0.089304
396	0.089410
397	0.089570
398	0.089393
399	0.089574
400	0.089304
401	0.089242
402	0.089109
403	0.088520
404	0.087098
405	0.085023
406	0.082171
407	0.077899
408	0.072365
409	0.065477
410	0.057451
411	0.048537
412	0.039126
413	0.029197
414	0.019116
415	0.009484
416	0.001020
417	0.000000
418	0.000000
419	0.000000
420	0.000000
421	0.000000
422	0.000000
423	0.000000
424	0.000000
425	0.001209
426	0.004775
427	0.007200
428	0.008338
429	0.008228
430	0.007038
431	0.005080
432	0.002710
433	0.000360
434	0.000000
435	0.000000
436	0.000000
437	0.000000
438	0.000000
439	0.000000
440	0.000000
441	0.000000
442	0.000000
443	0.000000
444	0.000000
445	0.000000
446	0.000000
447	0.000000
448	0.000000
449	0.001103
450	0.003264
451	0.005689
452	0.008261
453	0.010862
454	0.013409
455	0.015837
456	0.018189
457	0.020551
458	0.023155
459	0.026307
460	0.030329
461	0.035559
462	0.042392
463	0.051207
464	0.062219
465	0.075442
466	0.090760
467	0.107804
468	0.126154
469	0.145377
470	0.164617
471	0.183237
472	0.200815
473	0.217008
474	0.232330
475	0.247533
476	0.263131
477	0.279445
478	0.297246
479	0.317156
480	0.339587
481	0.363976
482	0.390214
483	0.417902
484	0.446079
485	0.474482
486	0.503327
487	0.532131
488	0.560329
489	0.588954
490	0.618394
491	0.649679
492	0.683244
493	0.719044
494	0.756967
495	0.797907
496	0.842152
497	0.888347
498	0.933823
499	0.980462
500	1.025394
501	1.066925
502	1.104384
503	1.138869
504	1.173963
505	1.210146
506	1.250147
507	1.295326
508	1.346610
509	1.403996
510	1.468649
511	1.539689
512	1.615792
513	1.694578
514	1.772808
515	1.847113
516	1.917955
517	1.983661
518	2.043131
519	2.095021
520	2.139782
521	2.179331
522	2.218119
523	2.256415
524	2.294733
525	2.332193
526	2.368437
527	2.402296
528	2.435804
529	2.467681
530	2.494898
531	2.517360
532	2.536368
533	2.549193
534	2.558147
535	2.563173
536	2.563311
537	2.561063
538	2.556239
539	2.552067
540	2.546192
541	2.538808
542	2.532334
543	2.525922
544	2.517535
545	2.509338
546	2.500654
547	2.488152
548	2.471652
549	2.454120
550	2.436961
551	2.419129
552	2.403601
553	2.387258
554	2.370313
555	2.350470
556	2.331182
557	2.312408
558	2.297531
559	2.284616
560	2.274986
561	2.275202
562	2.291629
563	2.313412
564	2.324381
565	2.303608
566	2.250433
567	2.177795
568	2.108172
569	2.055216
570	2.027763
571	2.020974
572	2.023626
573	2.029109
574	2.037021
575	2.044931
576	2.053788
577	2.061626
578	2.071201
579	2.083442
580	2.097284
581	2.112548
582	2.129466
583	2.148812
584	2.169505
585	2.192160
586	2.217618
587	2.243769
588	2.269784
589	2.296852
590	2.324038
591	2.351116
592	2.378236
593	2.404697
594	2.432107
595	2.460303
596	2.489025
597	2.518042
598	2.548018
599	2.579495
600	2.609345
601	2.635596
602	2.658993
603	2.679748
604	2.695186
605	2.707895
606	2.721186
607	2.735257
608	2.753653
609	2.776249
610	2.806725
611	2.840776
612	2.878792
613	2.918642
614	2.960171
615	2.994436
616	3.016247
617	3.020930
618	3.007319
619	2.969096
620	2.908207
621	2.825852
622	2.721829
623	2.596806
624	2.457737
625	2.308059
626	2.152717
627	1.998228
628	1.847075
629	1.699732
630	1.555674
631	1.413955
632	1.273048
633	1.134789
634	1.000526
635	0.872469
636	0.753257
637	0.644671
638	0.548017
639	0.463444
640	0.391348
641	0.330915
642	0.281934
643	0.242851
644	0.212430
645	0.188904
646	0.170073
647	0.154303
648	0.140355
649	0.127494
650	0.115407
651	0.104585
652	0.095464
653	0.088085
654	0.082165
655	0.077421
656	0.073437
657	0.069860
658	0.066403
659	0.062937
660	0.059675
661	0.056740
662	0.054190
663	0.051989
664	0.050202
665	0.048756
666	0.047710
667	0.047102
668	0.046814
669	0.046792
670	0.046986
