#INFO
#COMMENT: 

#DATA:
0.5002118	-4.439e-006	0.000973237394	
0.5002118	-6.297e-006	0.000973788206	
0.5001907	-4.439e-006	0.000973045785	
0.5001695	-8.981e-006	0.000927814101	
0.5001907	-2.3641e-005	0.000933486876	
0.5002118	-1.4969e-005	0.000967387955	
0.5002224	-1.1149e-005	0.000958972063	
0.5002542	-2.271e-006	0.000952763421	
0.5004869	-5.988e-006	0.000955758993	
0.5007831	-4.129e-006	0.000955239137	
0.5011745	-5.162e-006	0.000942515492	
0.5028566	1.445e-006	0.000945985019	
0.505057	-2.994e-006	0.00094264519	
0.5069823	-8.465e-006	0.000937741789	
0.5086749	-4.233e-006	0.000933246429	
0.510558	-5.162e-006	0.000931792542	
0.5124622	-3.2e-006	0.000919677618	
0.5141125	-9.601e-006	0.000911483225	
0.5161542	-1.0323e-005	0.000904888427	
0.5183758	-1.342e-006	0.000897941367	
0.5212109	-7.433e-006	0.000903296838	
0.5227977	-7.433e-006	0.00089533195	
0.5240672	1.239e-006	0.000891697767	
0.5259926	-4.646e-006	0.00089023	
0.528066	-6.401e-006	0.000886022054	
0.5297163	-2.684e-006	0.000881874954	
0.5311868	-4.439e-006	0.000878080117	
0.5322447	-6.71e-006	0.000874591642	
0.5331333	-6.194e-006	0.00087360477	
0.5338527	-2.787e-006	0.000872701696	
0.5349952	-1.858e-006	0.000869013606	
0.5366666	-5.781e-006	0.000865441334	
0.538867	-8.672e-006	0.000858807575	
0.5405808	-3.716e-006	0.000858723778	
0.5429082	-4.542e-006	0.000851386559	
0.5443469	-7.02e-006	0.000848673333	
0.5453413	-5.781e-006	0.000843066472	
0.5461453	-7.639e-006	0.000837121228	
0.5474359	-6.607e-006	0.000830831727	
0.5494142	-9.498e-006	0.000826487143	
0.5515088	-8.465e-006	0.000824479507	
0.5537304	-3.2e-006	0.000816208258	
0.5550316	-3.923e-006	0.0008160855	
0.5564809	-9.911e-006	0.000805853582	
0.55811	-6.71e-006	0.000802876957	
0.5598026	-7.639e-006	0.000800573902	
0.5609875	-8.981e-006	0.00079375654	
0.5622358	-7.226e-006	0.00079482427	
0.5632725	-1.0427e-005	0.000794027943	
0.5640342	-5.884e-006	0.000792325604	
0.5654517	-6.71e-006	0.000789721255	
0.5665096	-9.911e-006	0.000787464101	
0.5676098	-5.471e-006	0.000785704918	
0.5700112	-4.026e-006	0.000780050025	
0.571323	-9.704e-006	0.000790968587	
0.5720424	-5.162e-006	0.000781951979	
0.5730791	-1.0323e-005	0.000783333012	
0.5749198	-1.2595e-005	0.000777957528	
0.5763586	-1.136e-006	0.000773225723	
0.5776492	-8.259e-006	0.000772288755	
0.5788552	-1.0117e-005	0.00077264502	
0.5799977	-4.336e-006	0.00077300022	
0.581373	-6.297e-006	0.000769376979	
0.5826636	-8.672e-006	0.000766554068	
0.5849486	-1.032e-006	0.000772602057	
0.5870538	-3.923e-006	0.000769209386	
0.5887887	-7.02e-006	0.000772105151	
0.590968	-8.259e-006	0.000774583805	
0.5931896	-3.923e-006	0.000773745579	
0.5948187	3.2e-006	0.000789360987	
0.5965536	-3.2e-006	0.000786124967	
0.5982039	6.19e-007	0.000810852787	
0.5997696	3.51e-006	0.000804024482	
0.601695	-7.23e-007	0.00080312541	
0.6034828	-6.401e-006	0.000806901299	
0.6052389	1.652e-006	0.000811988304	
0.6063391	1.136e-006	0.000824184088	
0.6075028	-7.846e-006	0.000812555127	
0.608603	1.032e-006	0.000829837916	
0.6097878	-1.858e-006	0.000820729506	
0.610285	-5.162e-006	0.000824103229	
0.6109726	-8.052e-006	0.000822982657	
0.6119353	-4.955e-006	0.000831298742	
0.6136491	3.613e-006	0.00083662032	
0.6151196	-2.374e-006	0.000838452357	
0.6161563	-5.162e-006	0.000852373431	
0.6170449	2.271e-006	0.000859289535	
0.618526	-6.194e-006	0.000862744118	
0.6194992	-7.226e-006	0.000860513917	
0.6204302	-4.13e-007	0.000868616507	
0.6212659	-2.271e-006	0.00087255999	
0.6225671	-1.084e-005	0.000866856259	
0.6234451	-9.291e-006	0.00087452973	
0.6248627	-5.368e-006	0.000881695353	
0.6260052	-1.549e-006	0.000882227217	
0.6273805	-2.684e-006	0.00089265875	
0.6281422	-5.265e-006	0.000896070369	
0.6288192	-3.304e-006	0.000899859331	
0.6298985	-7.846e-006	0.000905248695	
0.6307872	-9.911e-006	0.000909486532	
0.6315488	-6.19e-007	0.000912642758	
0.6321201	-4.749e-006	0.00091540082	
0.6328818	-7.02e-006	0.000918724639	
0.6333896	-1.755e-006	0.000920541731	
0.6338974	-2.478e-006	0.000925085929	
0.6341936	-5.781e-006	0.000926480035	
0.6344898	-2.684e-006	0.000930453408	
0.634384	-2.478e-006	0.000930690918	
0.6345532	-5.059e-006	0.000932776476	
0.6348071	-6.19e-007	0.000935116362	
0.635061	-7.433e-006	0.000937373515	
0.6354842	-1.03e-007	0.00095176961	
0.6357592	-3.2e-006	0.000944714737	
0.6359497	-7.536e-006	0.000945280494	
0.6363093	-6.19e-007	0.000944122027	
0.6365632	-4.233e-006	0.000948073515	
0.6367642	-6.401e-006	0.000948922683	
0.636997	2.891e-006	0.000949336857	
0.6373672	-4.336e-006	0.000955356827	
0.6380337	-6.607e-006	0.000960652517	
0.6386261	-4.026e-006	0.000965043002	
0.6392397	-3.613e-006	0.000963964329	
0.639483	-3.716e-006	0.000964193834	
0.6397475	-7.33e-006	0.00096863929	
0.6404245	-4.749e-006	0.000971443253	
0.6409323	-1.755e-006	0.000973168543	
0.6414401	-3.407e-006	0.000978083952	
0.6421595	-7.123e-006	0.000979901043	
0.6424768	8.26e-007	0.000983378576	
0.6430481	-2.06e-007	0.000986679445	
0.6433443	-3.923e-006	0.000988271035	
0.6434924	-6.19e-007	0.000992161676	
0.6438944	-4.336e-006	0.000992697543	
0.6444445	-6.19e-007	0.000998277451	
0.6447301	-4.542e-006	0.000997329541	
0.6450581	-3.82e-006	0.00100129304	
0.6455235	3.097e-006	0.00100663756	
0.6457986	8.26e-007	0.00100824303	
0.6460207	-1.0633e-005	0.00100688095	
0.6460525	5.368e-006	0.00101158286	
0.6462006	-2.374e-006	0.00101601231	
0.6465391	-4.336e-006	0.00101713395	
0.6466237	1.03e-007	0.00102024827	
0.6468565	-4.13e-007	0.00102512872	
0.6470681	-1.652e-006	0.00102486132	
0.6472796	-4.646e-006	0.00102898841	
0.6476182	-3.1e-007	0.00102908021	
0.6476605	-4.13e-007	0.00103364442	
0.6480202	-1.445e-006	0.00103552636	
0.6483164	1.239e-006	0.00103506736	
0.648475	-1.342e-006	0.00104069529	
0.6489723	-5.16e-007	0.00104327269	
0.6493954	7.23e-007	0.0010440909	
0.6495224	-1.445e-006	0.00105450055	
0.6498609	-3.097e-006	0.00105077056	
0.650009	1.755e-006	0.00105251373	
0.6505168	-6.19e-007	0.00105814568	
0.6507918	-4.542e-006	0.00105739925	
0.6514054	4.542e-006	0.00106065128	
0.6517862	5.162e-006	0.00106496998	
0.6525056	2.374e-006	0.00107078152	
0.6527172	-5.368e-006	0.00107302667	
0.6529816	5.16e-007	0.00107569293	
0.6534154	1.136e-006	0.00108102145	
0.6535423	-2.478e-006	0.00108283854	
0.6538597	-4.129e-006	0.00108075405	
0.6540501	-4.439e-006	0.00108388332	
0.654029	1.136e-006	0.00108602172	
0.6541136	-2.065e-006	0.00108674413	
0.654706	-2.374e-006	0.00108929964	
0.6552349	-1.549e-006	0.0010960671	
0.6560072	-3.407e-006	0.00110234059	
0.6565044	-2.168e-006	0.00110208413	
0.6575517	3.51e-006	0.00111087123	
0.6582922	4.955e-006	0.00111584455	
0.6586837	-3.82e-006	0.00111917931	
0.6592232	5.16e-007	0.00112046961	
0.6595194	-1.032e-006	0.00112475041	
0.660006	1.755e-006	0.00112921081	
0.6605244	-4.439e-006	0.00112715621	
0.6612543	-3.716e-006	0.00113016272	
0.6616986	-2.478e-006	0.00113202571	
0.6621218	-5.884e-006	0.001138383	
0.6627565	-2.787e-006	0.00113849775	
0.6633489	3.097e-006	0.00114049951	
0.6639837	-1.961e-006	0.00114727391	
0.6645549	-5.988e-006	0.00114665425	
0.6649146	1.652e-006	0.00114802834	
0.6653378	-1.239e-006	0.00115382281	
0.6655282	-2.891e-006	0.00115646212	
0.6659937	-1.239e-006	0.00115713168	
0.6662899	-2.065e-006	0.00115869232	
0.666713	-2.478e-006	0.00116166894	
0.6672208	-6.19e-007	0.00116467546	
0.6676651	-5.988e-006	0.00116589584	
0.6681517	-3.097e-006	0.00117059375	
0.6684691	-4.439e-006	0.0011730644	
0.6685749	-4.852e-006	0.00117431173	
0.6687865	2.994e-006	0.00117746395	
0.6690615	-1.032e-006	0.00118224272	
0.669252	-2.478e-006	0.0011819014	
0.6694424	-2.06e-007	0.00118706927	
0.6698021	-2.891e-006	0.00118833555	
0.6698655	-4.336e-006	0.00119144987	
0.6701617	-2.06e-007	0.00119294166	
0.6702041	-1.755e-006	0.0011929107	
0.6705214	-1.239e-006	0.00119465894	
0.6707965	-5.884e-006	0.00120116594	
0.6710186	-4.646e-006	0.00119958636	
0.6713254	3.304e-006	0.00120395496	
0.6717274	-2.684e-006	0.00121082516	
0.6720448	-7.743e-006	0.00121123827	
0.6722775	-5.16e-007	0.00121148379	
0.6727218	-7.846e-006	0.0012149373	
0.6736633	-8.052e-006	0.00122582091	
0.6742769	-2.168e-006	0.00123725826	
0.6754829	-4.336e-006	0.00124201702	
0.6763504	-5.884e-006	0.0012514438	
0.6770063	-3.097e-006	0.0012561257	
0.6775141	-4.955e-006	0.00125737703	
0.6781488	1.3524e-005	0.00125963312	
0.6788047	-7.02e-006	0.00126838233	
0.6795875	-3.407e-006	0.00127432757	
0.6805819	-5.368e-006	0.00127773919	
0.681132	-5.988e-006	0.00128284221	
0.6814494	-6.401e-006	0.00128543961	
0.6819995	-7.123e-006	0.0012892075	
0.6825496	-5.368e-006	0.00129212621	
0.6828458	-8.672e-006	0.00129532834	
0.6830785	-1.858e-006	0.00129648787	
0.6833113	-5.471e-006	0.0013003625	
0.6838296	-5.368e-006	0.00130442981	
0.6840518	-2.684e-006	0.00130989203	
0.6850039	-4.026e-006	0.0013177451	
0.6855117	-5.781e-006	0.00131923688	
0.6857973	-4.439e-006	0.00132506337	
0.6862945	-6.504e-006	0.00132769467	
0.6868023	-3.613e-006	0.00133664243	
0.6871831	-9.291e-006	0.00133818812	
0.6875851	-9.291e-006	0.00134239206	
0.6881247	4.13e-007	0.00134835625	
0.6886219	-4.955e-006	0.00135263199	
0.6894682	-8.465e-006	0.00136281613	
0.6900923	-4.749e-006	0.00137737475	
0.6915628	-4.955e-006	0.00139068417	
0.6926313	-7.639e-006	0.00140100201	
0.6933929	-5.162e-006	0.00140857167	
0.6938796	-6.297e-006	0.0014182429	
0.6943239	-7.433e-006	0.00142419909	
0.6951279	-7.743e-006	0.00143072103	
0.695953	-7.123e-006	0.00143745754	
0.6967993	-4.439e-006	0.00144496635	
0.6976456	-1.022e-005	0.00144658089	
0.6980476	-1.2801e-005	0.00145200521	
0.6981957	-4.129e-006	0.00145000558	
0.6983439	-9.085e-006	0.00145262194	
0.6985554	-8.981e-006	0.00145557855	
0.6988305	-1.239e-006	0.00145780769	
0.6990632	-6.607e-006	0.00146094203	
0.6994229	-8.672e-006	0.00146154675	
0.6999942	-5.059e-006	0.00146720751	
0.7009039	-6.917e-006	0.00147456368	
0.7017291	-8.465e-006	0.00148158359	
0.7026389	-9.291e-006	0.00148749682	
0.7033794	-8.259e-006	0.00149197723	
0.7037814	-2.374e-006	0.00149902704	
0.7042045	-7.123e-006	0.00150277304	
0.7048604	-9.394e-006	0.00150797479	
0.7051778	-5.781e-006	0.00151072191	
0.7054634	-7.33e-006	0.00151568722	
0.7057702	-7.433e-006	0.001517175	
0.7061722	-9.911e-006	0.00151958587	
0.7065954	-9.394e-006	0.00152041102	
0.7071666	-2.994e-006	0.00152097785	
0.707484	-9.291e-006	0.00152723239	
0.7076956	-8.465e-006	0.00152900758	
0.7080024	-7.02e-006	0.00153340207	
0.7085419	-1.0943e-005	0.00153598854	
0.7088487	-8.981e-006	0.00153479111	
0.7092189	1.03e-007	0.00153969157	
0.7092613	-4.439e-006	0.00154222013	
0.7098008	-6.401e-006	0.00154886083	
0.7102451	-2.478e-006	0.00155578094	
0.711102	-3.51e-006	0.0015584053	
0.7117684	-2.06e-007	0.00156651483	
0.7126148	-6.917e-006	0.00157111293	
0.7131225	-6.091e-006	0.00157733358	
0.713588	-8.465e-006	0.00157658716	
0.7142651	-3.923e-006	0.00158119327	
0.7149421	-1.053e-005	0.00158859934	
0.7155768	-1.1975e-005	0.00159410052	
0.7162116	-3.51e-006	0.00160166324	
0.7166136	-7.33e-006	0.00159824361	
0.7173964	-6.917e-006	0.00160500601	
0.717883	-1.0117e-005	0.00161173157	
0.7189409	-8.878e-006	0.00162137478	
0.7199988	-3.716e-006	0.00163994386	
0.7206441	-4.749e-006	0.00163615302	
0.721099	-6.71e-006	0.00163619492	
0.7217126	-7.123e-006	0.00163738541	
0.7223473	-1.1046e-005	0.00164499297	
0.7227705	-9.498e-006	0.00164545998	
0.7232359	-1.032e-006	0.00164874991	
0.7234052	-5.988e-006	0.00164902532	
0.7235322	-9.807e-006	0.00164825994	
0.7241669	-8.775e-006	0.00164827595	
0.7248016	-6.917e-006	0.00165731845	
0.725193	-9.291e-006	0.00167625474	
0.7259864	-4.233e-006	0.00166480431	
0.7266952	-4.955e-006	0.00166804834	
0.7269703	-9.291e-006	0.00166850041	
0.727531	-7.743e-006	0.0016678578	
0.7279435	-1.0323e-005	0.00166729898	
0.7284513	-1.032e-006	0.00166946433	
0.7294246	-1.1356e-005	0.00166314894	
0.7303132	-1.084e-005	0.00166342728	
0.7313288	-5.575e-006	0.00165101801	
0.7323972	-1.0736e-005	0.00164278972	
0.7337831	-1.1253e-005	0.00164086988	
0.7346294	-5.059e-006	0.00164038792	
0.7356026	-7.639e-006	0.00163765281	
0.7367875	-8.775e-006	0.00164665741	
0.7382897	-7.433e-006	0.00165252874	
0.7399611	-7.433e-006	0.00167201584	
0.7419711	-7.226e-006	0.00169034341	
0.743431	-1.0943e-005	0.00170288745	
0.7462344	-9.188e-006	0.00172443209	
0.74926	-3.1e-007	0.00174793847	
0.7517354	-3.097e-006	0.0017682179	
0.7531318	-5.781e-006	0.00177621961	
0.7545282	-2.271e-006	0.00179107072	
0.7567287	-4.646e-006	0.00181552206	
0.7588656	-6.194e-006	0.00182822676	
0.7612353	-2.478e-006	0.0018427216	
0.7632981	-7.33e-006	0.00183511191	
0.7653716	-4.129e-006	0.00182575505	
0.7671912	-1.0633e-005	0.00185064352	
0.7687357	-8.878e-006	0.00185173314	
0.7704071	4.646e-006	0.00184555145	
0.7720363	-3.716e-006	0.00185279687	
0.7741097	-8.052e-006	0.0018501685	
0.7754004	-4.439e-006	0.00184546765	
0.775887	-5.781e-006	0.00184019598	
0.7764794	-7.02e-006	0.00182534994	
0.7772411	-1.053e-005	0.00180708722	
0.7777912	-9.601e-006	0.00177564291	
0.7785317	-6.194e-006	0.00170035089	
0.7788914	-7.123e-006	0.00162517362	
0.7796213	-1.0736e-005	0.00160161734	
0.7797271	-3.097e-006	0.00161050024	
0.7799175	-8.259e-006	0.00160993742	
0.7800233	-1.2595e-005	0.00161046128	
0.7800022	-8.156e-006	0.00160332662	
0.779981	-6.917e-006	0.00160493422	
0.7799387	-8.052e-006	0.00162247346	
0.7799387	-2.994e-006	0.00162119518	
