#INFO
#COMMENT: 

#DATA:
0.4761555	-8.465e-006	0.0009954476	
0.4761343	-4.646e-006	0.000999039885	
0.4761132	-1.022e-005	0.000994288067	
0.4761343	-8.568e-006	0.000993760206	
0.4761555	-7.846e-006	0.000994337971	
0.4761343	-8.156e-006	0.000994702241	
0.4761343	-1.1562e-005	0.000983596073	
0.4766633	-3.716e-006	0.000992157674	
0.4778481	-7.33e-006	0.000984146885	
0.4786204	-7.433e-006	0.000985780373	
0.4796782	-5.988e-006	0.000979517825	
0.4812862	-1.1253e-005	0.000969816705	
0.4827673	-1.239e-006	0.000977280684	
0.4845868	-1.3317e-005	0.000967614523	
0.4869142	-1.0014e-005	0.000962025544	
0.489432	-1.4659e-005	0.000960498804	
0.4919286	-1.2388e-005	0.000958865316	
0.494531	-1.1975e-005	0.000949278948	
0.4966891	-1.9615e-005	0.000943214949	
0.4993761	-1.7447e-005	0.000936344746	
0.5023805	-1.435e-005	0.00092221418	
0.5050993	-1.373e-005	0.000913671527	
0.5073737	-6.813e-006	0.000903549293	
0.5089288	-3.407e-006	0.000898285624	
0.5103041	-8.052e-006	0.000899666657	
0.5114889	-1.2595e-005	0.000892942161	
0.5127584	-1.0014e-005	0.00089484305	
0.5138797	-5.988e-006	0.000889491582	
0.5155195	-1.1149e-005	0.000879415249	
0.5179103	-1.1356e-005	0.000871435416	
0.5211474	-1.0117e-005	0.000869189205	
0.5226073	-5.575e-006	0.000866382304	
0.5239614	-9.911e-006	0.000867728378	
0.5261195	-1.0323e-005	0.000863876697	
0.5285844	-2.374e-006	0.000856183213	
0.5302664	-6.607e-006	0.000853234607	
0.5320331	-2.065e-006	0.000850560342	
0.5335036	-4.955e-006	0.0008380203	
0.5352491	-7.123e-006	0.000834348221	
0.5378832	-4.749e-006	0.000829929718	
0.5409193	-9.498e-006	0.000827707522	
0.543691	-7.846e-006	0.000819038109	
0.5453413	-1.032e-006	0.000803772026	
0.5466954	-4.955e-006	0.000812198861	
0.5484303	-6.607e-006	0.000801874075	
0.5506731	-3.1e-007	0.000804047432	
0.5533284	-6.607e-006	0.000794161643	
0.5544603	-5.368e-006	0.000786530071	
0.5561635	-8.672e-006	0.00077954618	
0.5581523	-7.846e-006	0.00077898336	
0.5604797	-7.949e-006	0.000770383864	
0.5632725	-8.156e-006	0.000765857548	
0.5662452	-1.1459e-005	0.000758295892	
0.56944	-1.0117e-005	0.000753440264	
0.5721482	-9.704e-006	0.000752319693	
0.5755123	-3.1383e-005	0.000753517121	
0.5778396	-1.755e-005	0.000750633364	
0.5806642	-3.3035e-005	-0.00349307866	
0.5823251	-0.000367928	-6.59496878e-005	
0.5848957	5.988e-006	0.000627699853	
0.5870961	2.2815e-005	0.000653629104	
0.5887253	-9.291e-006	0.000644011781	
0.590841	-9.807e-006	0.000656787202	
0.592449	-1.8479e-005	0.000657575524	
0.5940993	-2.891e-006	0.000672472527	
0.5957708	-2.0647e-005	0.000708989962	
0.5979924	-8.672e-006	0.000677319084	
0.5999177	-1.0323e-005	0.000690639443	
0.6027317	-1.1769e-005	0.000700730721	
0.6049004	-6.401e-006	0.000704193309	
0.6069315	-2.168e-006	0.000710913802	
0.6082539	-7.226e-006	0.000713480255	
0.6095974	-1.1666e-005	0.000730359005	
0.6103379	-7.23e-007	0.000717353014	
0.6107187	1.5692e-005	0.000729508771	
0.6115651	3.613e-006	0.000736781141	
0.6125806	-2.684e-006	0.000741387251	
0.6147176	-5.162e-006	0.000746172962	
0.6156485	-1.4866e-005	0.000751229012	
0.6164102	-3.5822e-005	0.00075530726	
0.61732	-1.373e-005	0.000762408034	
0.6189068	-8.259e-006	0.000772770715	
0.6198272	-6.401e-006	0.000776350993	
0.6208745	-1.404e-005	0.000779928333	
0.6227469	-1.1769e-005	0.000788306329	
0.6237413	-3.097e-006	0.000793891305	
0.6250531	-8.362e-006	0.000799184865	
0.6265342	-1.1975e-005	0.000807673611	
0.627994	-6.813e-006	0.000815213381	
0.6293696	-7.536e-006	0.000819168872	
0.6304698	-1.693e-005	0.000828610597	
0.6313796	-9.085e-006	0.000838139055	
0.6324375	-1.0117e-005	0.000839050135	
0.6333473	-7.639e-006	0.000846922155	
0.6341089	-6.401e-006	0.000857400655	
0.6343205	-1.2078e-005	0.000855797057	
0.6345744	-7.846e-006	0.000861634489	
0.6351457	-9.291e-006	0.000865854443	
0.6359497	-5.162e-006	0.000875849916	
0.6367113	-8.362e-006	0.000871485319	
0.6372191	-9.807e-006	0.000877969367	
0.6379173	-4.542e-006	0.000884797673	
0.638404	-1.1149e-005	0.000885567047	
0.6389752	-1.0943e-005	0.0008921928	
0.6395571	-9.29e-007	0.00089322851	
0.6403399	-6.607e-006	0.000898087075	
0.6411439	-1.404e-005	0.000903071336	
0.6424345	-7.02e-006	0.000907019886	
0.6429423	-8.26e-007	0.000909983438	
0.6431539	-6.401e-006	0.000915935621	
0.6433654	-6.297e-006	0.000914498811	
0.6436299	-3.51e-006	0.000924578081	
0.6444445	-4.542e-006	0.000922202172	
0.6449311	-4.129e-006	0.000925200682	
0.6455235	-9.911e-006	0.000930299695	
0.6460102	-5.988e-006	0.000937710833	
0.6465391	-3.304e-006	0.000941440821	
0.646793	3.613e-006	0.000946026918	
0.6469623	-9.085e-006	0.000954703271	
0.6472796	1.445e-006	0.000952556867	
0.6475335	4.13e-007	0.000954787067	
0.6477874	1.755e-006	0.000958754566	
0.6481259	-1.755e-006	0.000963416454	
0.6484856	-7.639e-006	0.000961844878	
0.6488241	4.233e-006	0.000965754467	
0.6495224	-4.129e-006	0.000961214272	
0.6499138	-1.1149e-005	0.000974117518	
0.6502417	-2.684e-006	0.000978592865	
0.6505379	-1.053e-005	0.0010369992	
0.6509822	-1.4453e-005	0.000986931901	
0.6517016	-6.71e-006	0.000993109587	
0.6520613	3.716e-006	0.000971587896	
0.6528864	-1.6621e-005	0.00101963155	
0.653627	-9.291e-006	0.00101547751	
0.6537962	-1.858e-006	0.00101960566	
0.6540607	1.755e-006	0.00102785983	
0.6542405	-2.581e-006	0.00101317045	
0.6543252	-5.781e-006	0.0010168436	
0.6544098	4.542e-006	0.00103054904	
0.6544098	-6.19e-007	0.00102433747	
0.6543781	-5.162e-006	0.00102658955	
0.6543992	4.13e-007	0.00103230929	
0.6548329	6.19e-007	0.0010374003	
0.6560389	1.1562e-005	0.00104740378	
0.65752	-3.923e-006	0.00105570892	
0.6579326	-5.059e-006	0.00105635954	
0.658726	3.923e-006	0.00106581221	
0.6596463	-3.304e-006	0.00107398659	
0.6607254	-5.678e-006	0.00108297224	
0.6619948	2.06e-007	0.00108905919	
0.6635817	5.575e-006	0.00109344273	
0.66483	-1.858e-006	0.00109808274	
0.6653589	-6.401e-006	0.00110406294	
0.6660783	-4.336e-006	0.00111068763	
0.6669881	-1.03e-007	0.00111941682	
0.6686172	-1.1872e-005	0.00113330294	
0.6698021	-8.878e-006	0.00113303954	
0.6703098	1.239e-006	0.0011440878	
0.6708388	2.065e-006	0.00114776388	
0.6712619	-1.445e-006	0.0011485442	
0.6717063	-2.891e-006	0.00116225765	
0.6723833	-1.4453e-005	0.0011799805	
0.6732296	8.052e-006	0.00117609786	
0.6738009	5.616e-005	0.00118095243	
0.6743933	6.194e-006	0.00119258539	
0.6749434	5.0275e-005	0.00119938274	
0.6760965	2.3125e-005	0.00115964236	
0.6769216	1.1046e-005	0.00122150915	
0.6775141	4.646e-006	0.00121974596	
0.6784662	7.639e-006	0.0012280012	
0.6790586	9.601e-006	0.00119436859	
0.6798202	8.156e-006	0.00123567467	
0.6806031	-7.33e-006	0.00124435903	
0.6811955	8.878e-006	0.00125365105	
0.6816821	1.2388e-005	0.00125850454	
0.682867	7.226e-006	0.00126465634	
0.6835863	5.781e-006	0.0012733786	
0.6841153	3.2e-006	0.00127525653	
0.6843057	5.471e-006	0.00128142328	
0.6848346	-1.858e-006	0.00127866521	
0.6853424	-4.13e-007	0.00129240962	
0.6859348	7.639e-006	0.00129475564	
0.6864426	1.032e-006	0.00130117378	
0.6869927	2.787e-006	0.00130947091	
0.6876698	5.575e-006	0.00130728661	
0.6884314	0	0.00132259566	
0.6889816	1.032e-006	0.00133605772	
0.6896586	-2.891e-006	0.00133933164	
0.6900394	-2.271e-006	0.00134470206	
0.6907059	7.02e-006	0.00136614102	
0.691182	1.136e-006	0.00136091818	
0.6918802	3.1e-007	0.00136612901	
0.6923985	-8.26e-007	0.00137339738	
0.6927794	0	0.00138140416	
0.6934987	1.239e-006	0.00138728749	
0.6938796	-5.678e-006	0.00139397009	
0.6940911	-1.652e-006	0.00139558063	
0.6944931	2.374e-006	0.00140213353	
0.694874	-6.19e-007	0.00141006746	
0.6949375	-4.026e-006	0.00141425245	
0.6957838	-7.846e-006	0.0014077604	
0.6964608	9.291e-006	0.00141455882	
0.6970321	7.02e-006	0.00143151229	
0.6977091	-2.168e-006	0.00143764514	
0.6983015	-3.097e-006	0.0014383945	
0.6993806	1.1975e-005	0.00144948066	
0.7004173	-1.03e-007	0.00145432428	
0.7008405	-6.194e-006	0.0014577858	
0.7015175	4.129e-006	0.00146477876	
0.7021311	4.13e-007	0.00146923916	
0.7024061	-1.445e-006	0.0014735269	
0.7028928	-5.575e-006	0.00147799131	
0.7032313	-1.445e-006	0.00148414604	
0.7036544	3.407e-006	0.00148635436	
0.703866	1.3008e-005	0.00152098879	
0.704395	1.961e-006	0.00149781066	
0.7045431	5.368e-006	0.00150304444	
0.704797	2.994e-006	0.00150574059	
0.7054317	-1.445e-006	0.00151211789	
0.7056644	-5.368e-006	0.00151174668	
0.7060664	-2.787e-006	0.00151683075	
0.7069762	1.032e-006	0.00152414101	
0.7074734	-6.194e-006	0.0015302309	
0.7082563	-5.781e-006	0.00152941669	
0.7087852	7.846e-006	0.00154768235	
0.7092613	1.961e-006	0.00154787396	
0.7098219	2.06e-007	0.00155061307	
0.7099806	1.755e-006	0.00155238426	
0.7103297	-1.445e-006	0.00155492776	
0.7105836	-2.065e-006	0.00155760203	
0.7107952	-6.194e-006	0.00156013459	
0.7111126	-5.368e-006	0.00156369192	
0.7114088	-5.16e-007	0.00157184441	
0.7117684	-2.891e-006	0.00156744886	
0.7121916	-4.542e-006	0.00157362254	
0.7127205	-1.549e-006	0.00157464037	
0.7127629	-2.271e-006	0.00157458246	
0.7129215	-2.891e-006	0.00157633177	
0.7130802	-5.988e-006	0.00157815179	
0.7134399	-6.297e-006	0.00157772374	
0.7136515	-1.032e-006	0.00158465479	
0.7143285	-4.646e-006	0.0015875276	
0.7146671	-7.02e-006	0.00159036946	
0.7148575	-3.2e-006	0.00159027873	
0.7150479	-6.917e-006	0.00160997238	
0.7156403	-2.581e-006	0.00160773017	
0.7166982	-6.401e-006	0.00161415738	
0.717608	-5.678e-006	0.00162070227	
0.718285	-2.581e-006	0.00162415285	
0.7191948	2.271e-006	0.00163386091	
0.7196285	-7.846e-006	0.00163376217	
0.7202315	-2.787e-006	0.00163808781	
0.720697	-6.297e-006	0.00164335948	
0.7212471	-3.51e-006	0.0016484246	
0.7217337	-4.646e-006	0.00165335602	
0.7224743	-6.091e-006	0.00165337096	
0.7230455	-2.478e-006	0.00165686344	
0.7235533	-5.678e-006	0.00166338939	
0.7247805	-8.259e-006	0.00166514163	
0.7252882	-1.858e-006	0.001668213	
0.725521	-4.129e-006	0.00167144208	
0.7257008	-1.3627e-005	0.00166859221	
0.7262086	-3.097e-006	0.00167448355	
0.7268116	-4.439e-006	0.00167488465	
0.7273088	-4.026e-006	0.00167535567	
0.7279224	-7.846e-006	0.00167185919	
0.728409	-9.291e-006	0.00167135428	
0.7291284	1.03e-007	0.00167024465	
0.7299324	-4.749e-006	0.00166440722	
0.7303344	-5.988e-006	0.00166154241	
0.730694	-3.82e-006	0.00165785432	
0.7313076	-6.091e-006	0.0016548857	
0.7318366	-4.439e-006	0.00165323326	
0.7321328	-7.02e-006	0.00165096116	
0.7327252	-7.33e-006	0.00164966793	
0.7334869	1.032e-006	0.00164663846	
0.7342062	-5.781e-006	0.00164733392	
0.7346505	-6.091e-006	0.00164563558	
0.7348621	-3.51e-006	0.001644503	
0.7349679	-5.781e-006	0.00164664247	
0.7353276	-5.265e-006	0.00164687197	
0.7358565	-8.568e-006	0.00164569749	
0.7361104	-7.639e-006	0.00165003914	
0.7364066	-3.097e-006	0.00165196298	
0.7369356	-4.955e-006	0.00165533777	
0.7373587	-7.33e-006	0.00165622083	
0.7377819	-2.581e-006	0.00165859274	
0.7380781	-5.575e-006	0.00165950675	
0.738332	-5.368e-006	0.00166198941	
0.7387763	-5.678e-006	0.00166805341	
0.7393687	-5.471e-006	0.00167078852	
0.7402573	-5.059e-006	0.00167863065	
0.7409767	-4.749e-006	0.00168201531	
0.74122	-1.053e-005	0.00168355406	
0.7416538	-7.433e-006	0.00168540105	
0.741823	-4.233e-006	0.00169388979	
0.7424154	-6.917e-006	0.00169614294	
0.7425953	-5.059e-006	0.00169939898	
0.7432406	-7.226e-006	0.00170589397	
0.7436849	-3.613e-006	0.00171376198	
0.7449861	-6.091e-006	0.00172348605	
0.7457266	-7.02e-006	0.00172642078	
0.746319	2.06e-007	0.00173653901	
0.7475885	-4.129e-006	0.0017427247	
0.7481809	-6.607e-006	0.00174425838	
0.7489214	-4.955e-006	0.00175031838	
0.7495139	-6.194e-006	0.00175482068	
0.7505083	-4.955e-006	0.00176137358	
0.7506775	-5.575e-006	0.00176389413	
0.7511642	-8.465e-006	0.00176375643	
0.7514604	-1.755e-006	0.00176280452	
0.7518201	-6.194e-006	0.00177007689	
0.752148	-6.607e-006	0.0017713042	
0.7523913	-4.749e-006	0.00177421892	
0.7525817	-7.226e-006	0.00178032882	
0.7529626	-2.581e-006	0.00178453276	
0.7534069	-8.878e-006	0.00178874765	
0.7539993	-7.949e-006	0.00179162847	
0.7543378	-2.891e-006	0.00179683129	
0.7545917	-5.368e-006	0.0017995205	
0.7549302	-8.156e-006	0.00180131758	
0.7552265	-7.02e-006	0.00180882346	
0.756168	-6.813e-006	0.00181229005	
0.7565382	-5.988e-006	0.00181355232	
0.7567498	-8.052e-006	0.00181777522	
0.7573422	-5.988e-006	0.00182365561	
0.7576808	-3.304e-006	0.00182499768	
0.7579981	-5.368e-006	0.00183209339	
0.7583366	-4.026e-006	0.00183502411	
0.7585482	-3.51e-006	0.00183428169	
0.7593311	-5.162e-006	0.00184010418	
0.7598494	-6.194e-006	0.00184400683	
0.7602832	-5.471e-006	0.00184538786	
0.7608544	-5.988e-006	0.00185041001	
0.7615526	-7.33e-006	0.00185460996	
0.7619652	-8.775e-006	0.0018519477	
0.7623672	-1.0323e-005	0.00185237975	
0.7627903	-7.639e-006	0.0018539145	
0.7632135	-5.988e-006	0.00184901003	
0.7635732	-7.846e-006	0.00184587276	
0.764081	-4.439e-006	0.00184763994	
0.7644407	-3.1e-007	0.00183640915	
0.7648215	-5.988e-006	0.00183785503	
0.7651812	-8.259e-006	0.00183788492	
0.7655197	-1.032e-006	0.00184457659	
0.7658794	-7.02e-006	0.00184992405	
0.7661544	-7.536e-006	0.00185164934	
0.7662814	-9.085e-006	0.00185656181	
0.7667468	-7.639e-006	0.00186289215	
0.7669584	-1.549e-006	0.00186725674	
0.7673604	-5.884e-006	0.00186201603	
0.7676566	-5.575e-006	0.00186552451	
0.7677836	-4.129e-006	0.00186933029	
0.7683548	-5.162e-006	0.00187062646	
0.7685876	-6.607e-006	0.00187058056	
0.7689684	-8.052e-006	0.00187318998	
0.7692752	-6.401e-006	0.00186857293	
0.7697089	-7.639e-006	0.00186495075	
0.7700051	-6.194e-006	0.00186210783	
0.7701744	-7.846e-006	0.00186090239	
0.7708938	-1.652e-006	0.00185933482	
0.7709784	-7.02e-006	0.00186352782	
0.7711265	-6.71e-006	0.00186319451	
0.7713804	-8.775e-006	0.00186333221	
0.7719728	-6.71e-006	0.00186567316	
0.7723537	-1.136e-006	0.0018672418	
0.7726287	-6.71e-006	0.00186547061	
0.7730624	-8.981e-006	0.00186761301	
0.7733481	-1.032e-006	0.00187003375	
0.7738559	-5.678e-006	0.00186861883	
0.7741309	-7.639e-006	0.00186787641	
0.7745329	-2.374e-006	0.00186967855	
0.7747656	-7.846e-006	0.00186670193	
0.7750618	-6.194e-006	0.00186583782	
0.7753369	-9.498e-006	0.00186480104	
0.7755273	-1.0117e-005	0.00186185937	
0.7756331	-1.652e-006	0.00186259379	
0.7756119	-4.233e-006	0.00186400471	
0.7756119	-8.362e-006	0.00186160292	
0.7756119	-7.433e-006	0.00185973992	
0.7755696	-6.194e-006	0.00186390597	
