# zeit : zahl : winkel
22.86	0	0
22.88	0	0
22.9	0	0
22.92	0	0
22.94	0	0
22.96	0	0
22.98	0	0
23	0	0
23.02	0	0
23.04	0	0
23.06	0	0
23.08	1	10
23.1	1	10
23.12	1	10
23.14	1	10
23.16	2	20
23.18	2	20
23.2	2	20
23.22	2	20
23.24	2	20
23.26	3	30
23.28	4	40
23.3	4	40
23.32	5	50
23.34	5	50
23.36	5	50
23.38	5	50
23.4	5	50
23.42	5	50
23.44	6	60
23.46	6	60
23.48	7	70
23.5	7	70
23.52	9	90
23.54	10	100
23.56	11	110
23.58	13	130
23.6	14	140
23.62	16	160
23.64	17	170
23.66	18	180
23.68	19	190
23.7	21	210
23.72	22	220
23.74	23	230
23.76	24	240
23.78	25	250
23.8	26	260
23.82	28	280
23.84	29	290
23.86	30	300
23.88	31	310
23.9	32	320
23.92	33	330
23.94	34	340
23.96	35	350
23.98	35	350
24	36	360
24.02	37	370
24.04	38	380
24.06	39	390
24.08	40	400
24.1	41	410
24.12	42	420
24.14	43	430
24.16	44	440
24.18	45	450
24.2	46	460
24.22	47	470
24.24	48	480
24.26	49	490
24.28	50	500
24.3	51	510
24.32	52	520
24.34	53	530
24.36	54	540
24.38	55	550
24.4	56	560
24.42	57	570
24.44	58	580
24.46	59	590
24.48	60	600
24.5	61	610
24.52	62	620
24.54	63	630
24.56	64	640
24.58	65	650
24.6	65	650
24.62	66	660
24.64	67	670
24.66	68	680
24.68	69	690
24.7	70	700
24.72	71	710
24.74	73	730
24.76	74	740
24.78	75	750
24.8	76	760
24.82	77	770
24.84	78	780
24.86	79	790
24.88	80	800
24.9	81	810
24.92	82	820
24.94	83	830
24.96	84	840
24.98	85	850
25	86	860
25.02	86	860
25.04	87	870
25.06	88	880
25.08	89	890
25.1	90	900
25.12	91	910
25.14	92	920
25.16	92	920
25.18	93	930
25.2	94	940
25.22	95	950
25.24	96	960
25.26	97	970
25.28	97	970
25.3	98	980
25.32	99	990
25.34	100	1000
25.36	101	1010
25.38	101	1010
25.4	102	1020
25.42	103	1030
25.44	104	1040
25.46	104	1040
25.48	105	1050
25.5	106	1060
25.52	106	1060
25.54	107	1070
25.56	107	1070
25.58	108	1080
25.6	109	1090
25.62	110	1100
25.64	110	1100
25.66	111	1110
25.68	112	1120
25.7	113	1130
25.72	113	1130
25.74	114	1140
25.76	115	1150
25.78	116	1160
25.8	117	1170
25.82	117	1170
25.84	118	1180
25.86	119	1190
25.88	120	1200
25.9	121	1210
25.92	122	1220
25.94	123	1230
25.96	124	1240
25.98	125	1250
26	125	1250
26.02	126	1260
26.04	127	1270
26.06	128	1280
26.08	129	1290
26.1	130	1300
26.12	130	1300
26.14	131	1310
26.16	132	1320
26.18	132	1320
26.2	133	1330
26.22	134	1340
26.24	134	1340
26.26	135	1350
26.28	135	1350
26.3	136	1360
26.32	137	1370
26.34	137	1370
26.36	138	1380
26.38	138	1380
26.4	139	1390
26.42	140	1400
26.44	140	1400
26.46	141	1410
26.48	142	1420
26.5	142	1420
26.52	143	1430
26.54	144	1440
26.56	144	1440
26.58	145	1450
26.6	146	1460
26.62	146	1460
26.64	147	1470
26.66	148	1480
26.68	149	1490
26.7	149	1490
26.72	150	1500
26.74	150	1500
26.76	151	1510
26.78	152	1520
26.8	152	1520
26.82	152	1520
26.84	153	1530
26.86	153	1530
26.88	154	1540
26.9	154	1540
26.92	155	1550
26.94	155	1550
26.96	156	1560
26.98	156	1560
27	157	1570
27.02	157	1570
27.04	157	1570
27.06	158	1580
27.08	158	1580
27.1	158	1580
27.12	158	1580
27.14	159	1590
27.16	159	1590
27.18	159	1590
27.2	159	1590
27.22	159	1590
27.24	160	1600
27.26	160	1600
27.28	160	1600
27.3	160	1600
27.32	160	1600
27.34	160	1600
27.36	161	1610
27.38	161	1610
27.4	161	1610
27.42	161	1610
27.44	161	1610
27.46	161	1610
27.48	161	1610
27.5	161	1610
27.52	162	1620
27.54	162	1620
27.56	162	1620
27.58	162	1620
27.6	162	1620
27.62	162	1620
27.64	162	1620
27.66	162	1620
27.68	163	1630
27.7	163	1630
27.72	163	1630
27.74	163	1630
27.76	163	1630
27.78	163	1630
27.8	163	1630
27.82	163	1630
27.84	163	1630
27.86	163	1630
27.88	163	1630
27.9	164	1640
27.92	164	1640
27.94	164	1640
27.96	164	1640
27.98	164	1640
28	164	1640
28.02	164	1640
28.04	164	1640
28.06	164	1640
28.08	164	1640
28.1	164	1640
28.12	164	1640
28.14	164	1640
28.16	165	1650
28.18	165	1650
28.2	165	1650
28.22	165	1650
28.24	165	1650
28.26	165	1650
28.28	165	1650
28.3	165	1650
28.33	165	1650
28.35	165	1650
28.36	165	1650
28.38	165	1650
28.4	165	1650
28.42	165	1650
28.44	165	1650
28.46	165	1650
28.48	165	1650
28.5	165	1650
28.52	165	1650
28.54	165	1650
28.56	165	1650
28.58	165	1650
28.6	165	1650
28.62	165	1650
28.64	165	1650
28.66	166	1660
28.68	166	1660
28.7	166	1660
28.72	166	1660
28.74	166	1660
28.76	166	1660
28.78	166	1660
28.8	166	1660
28.82	166	1660
28.84	166	1660
28.86	166	1660
28.88	166	1660
28.9	166	1660
28.92	166	1660
28.94	166	1660
28.96	166	1660
28.98	166	1660
29	166	1660
29.02	166	1660
29.04	166	1660
29.06	166	1660
29.08	166	1660
29.1	166	1660
29.12	166	1660
29.14	167	1670
29.16	167	1670
29.18	167	1670
29.2	167	1670
29.22	167	1670
29.24	167	1670
29.26	167	1670
29.28	167	1670
29.3	167	1670
29.32	167	1670
29.34	167	1670
29.36	167	1670
29.38	167	1670
29.4	167	1670
29.42	167	1670
29.44	167	1670
29.46	167	1670
29.48	167	1670
29.5	167	1670
29.52	167	1670
29.54	168	1680
29.56	168	1680
29.58	168	1680
29.6	168	1680
29.62	168	1680
29.64	168	1680
29.66	168	1680
29.68	168	1680
29.7	168	1680
29.72	168	1680
29.74	168	1680
29.76	168	1680
29.78	168	1680
29.8	168	1680
29.82	168	1680
29.84	168	1680
29.86	169	1690
29.88	169	1690
29.9	169	1690
29.92	169	1690
29.98	169	1690
30.05	169	1690
30.06	169	1690
30.08	169	1690
30.09	169	1690
30.11	169	1690
30.12	170	1700
30.14	170	1700
30.15	170	1700
30.17	170	1700
30.19	170	1700
30.2	170	1700
30.22	170	1700
30.24	170	1700
30.25	170	1700
30.27	170	1700
30.28	170	1700
30.3	170	1700
30.31	170	1700
30.33	170	1700
30.34	170	1700
30.36	170	1700
30.38	171	1710
30.4	171	1710
30.42	171	1710
30.44	171	1710
30.46	171	1710
30.48	171	1710
30.5	171	1710
30.52	171	1710
30.54	171	1710
30.56	171	1710
30.58	171	1710
30.6	171	1710
30.62	171	1710
30.64	171	1710
30.66	172	1720
30.68	172	1720
30.7	172	1720
30.72	172	1720
30.74	172	1720
30.76	172	1720
30.78	172	1720
30.8	173	1730
30.82	173	1730
30.84	173	1730
30.86	173	1730
30.88	173	1730
30.9	173	1730
30.92	173	1730
30.94	173	1730
30.96	173	1730
30.98	173	1730
31	173	1730
31.02	173	1730
31.04	174	1740
31.06	174	1740
31.08	174	1740
31.1	174	1740
31.12	174	1740
31.14	174	1740
31.16	174	1740
31.18	174	1740
31.2	174	1740
31.22	175	1750
31.24	175	1750
31.26	175	1750
31.28	175	1750
31.3	175	1750
31.32	175	1750
31.34	175	1750
31.36	175	1750
31.38	175	1750
31.4	175	1750
31.42	176	1760
31.44	176	1760
31.46	176	1760
31.48	176	1760
31.5	176	1760
31.52	176	1760
31.54	176	1760
31.56	176	1760
31.58	176	1760
31.6	177	1770
31.62	177	1770
31.64	177	1770
31.66	177	1770
31.68	177	1770
31.7	177	1770
31.72	177	1770
31.74	177	1770
31.76	177	1770
31.78	178	1780
31.8	178	1780
31.82	178	1780
31.84	178	1780
31.86	178	1780
31.88	178	1780
31.9	178	1780
31.92	179	1790
31.94	179	1790
31.96	179	1790
31.98	179	1790
32	179	1790
32.02	179	1790
32.04	180	1800
32.06	180	1800
32.08	180	1800
32.1	180	1800
32.12	180	1800
32.14	180	1800
32.16	180	1800
32.18	180	1800
32.2	180	1800
32.22	180	1800
32.24	180	1800
32.26	181	1810
32.28	181	1810
32.3	181	1810
32.32	181	1810
32.34	181	1810
32.36	182	1820
32.38	182	1820
32.4	182	1820
32.42	182	1820
32.44	182	1820
32.46	182	1820
32.48	182	1820
32.5	182	1820
32.52	182	1820
32.54	182	1820
32.56	182	1820
32.58	182	1820
32.6	183	1830
32.62	183	1830
32.64	183	1830
32.66	183	1830
32.68	183	1830
32.7	184	1840
32.72	184	1840
32.74	184	1840
32.76	185	1850
32.78	185	1850
32.8	185	1850
32.82	185	1850
32.84	186	1860
32.86	186	1860
32.88	186	1860
32.9	187	1870
32.92	187	1870
32.94	187	1870
32.96	188	1880
32.98	188	1880
33	188	1880
33.02	189	1890
33.04	189	1890
33.06	189	1890
33.08	190	1900
33.1	190	1900
33.12	190	1900
33.14	191	1910
33.16	191	1910
33.18	191	1910
33.2	192	1920
33.22	192	1920
33.24	193	1930
33.26	193	1930
33.28	193	1930
33.3	194	1940
33.32	194	1940
33.34	194	1940
33.36	195	1950
33.38	195	1950
33.4	195	1950
33.42	196	1960
33.44	196	1960
33.46	197	1970
33.48	197	1970
33.5	198	1980
33.52	198	1980
33.54	199	1990
33.56	199	1990
33.58	200	2000
33.6	200	2000
33.62	201	2010
33.64	201	2010
33.66	202	2020
33.68	202	2020
33.7	203	2030
33.72	203	2030
33.74	204	2040
33.76	205	2050
33.78	205	2050
33.8	206	2060
33.82	206	2060
33.84	207	2070
33.86	208	2080
33.88	208	2080
33.9	209	2090
33.92	209	2090
33.94	210	2100
33.96	210	2100
33.98	211	2110
34	212	2120
34.02	212	2120
34.04	213	2130
34.06	213	2130
34.08	214	2140
34.1	214	2140
34.12	215	2150
34.14	215	2150
34.16	216	2160
34.18	216	2160
34.2	217	2170
34.22	217	2170
34.24	218	2180
34.26	218	2180
34.28	219	2190
34.3	219	2190
34.32	220	2200
34.34	221	2210
34.36	221	2210
34.38	222	2220
34.4	222	2220
34.42	223	2230
34.44	223	2230
34.46	224	2240
34.48	225	2250
34.5	225	2250
34.52	226	2260
34.54	226	2260
34.56	227	2270
34.58	228	2280
34.6	228	2280
34.62	229	2290
34.64	229	2290
34.66	230	2300
34.68	230	2300
34.7	231	2310
34.72	231	2310
34.74	232	2320
34.76	233	2330
34.78	233	2330
34.8	234	2340
34.82	234	2340
34.84	235	2350
34.86	235	2350
34.88	236	2360
34.9	236	2360
34.92	236	2360
34.94	237	2370
34.96	237	2370
34.98	238	2380
35	238	2380
35.02	239	2390
35.04	239	2390
35.06	239	2390
35.08	240	2400
35.1	240	2400
35.12	240	2400
35.14	241	2410
35.16	241	2410
35.18	242	2420
35.2	242	2420
35.22	242	2420
35.24	243	2430
35.26	243	2430
35.28	244	2440
35.3	244	2440
35.32	244	2440
35.34	245	2450
35.36	245	2450
35.38	246	2460
35.4	246	2460
35.42	246	2460
35.44	247	2470
35.46	247	2470
35.48	247	2470
35.5	248	2480
35.52	248	2480
35.54	248	2480
35.56	249	2490
35.58	249	2490
35.6	250	2500
35.62	250	2500
35.64	250	2500
35.66	251	2510
35.68	251	2510
35.7	251	2510
35.72	252	2520
35.74	252	2520
35.76	252	2520
35.78	252	2520
35.8	253	2530
35.82	253	2530
35.84	253	2530
35.86	253	2530
35.88	253	2530
35.9	254	2540
35.92	254	2540
35.94	254	2540
35.96	254	2540
35.98	254	2540
36	255	2550
36.02	255	2550
36.04	255	2550
36.06	255	2550
36.08	255	2550
36.1	255	2550
36.12	255	2550
36.14	256	2560
36.16	256	2560
36.18	256	2560
36.2	256	2560
36.22	256	2560
36.24	256	2560
36.26	256	2560
36.28	257	2570
36.3	257	2570
36.32	257	2570
36.34	257	2570
36.36	257	2570
36.39	257	2570
36.41	257	2570
36.42	257	2570
36.44	257	2570
36.46	257	2570
36.48	257	2570
36.5	257	2570
36.52	258	2580
36.54	258	2580
36.56	258	2580
36.58	258	2580
36.6	258	2580
36.62	258	2580
36.64	258	2580
36.66	258	2580
36.68	259	2590
36.7	259	2590
36.72	259	2590
36.74	259	2590
36.76	259	2590
36.78	259	2590
36.8	259	2590
36.82	260	2600
36.84	260	2600
36.86	260	2600
36.88	260	2600
36.9	260	2600
36.92	260	2600
36.94	261	2610
36.96	261	2610
36.98	261	2610
37	261	2610
37.02	261	2610
37.04	262	2620
37.06	262	2620
37.08	262	2620
37.1	262	2620
37.12	262	2620
37.14	262	2620
37.16	263	2630
37.18	263	2630
37.2	263	2630
37.22	263	2630
37.24	263	2630
37.26	263	2630
37.28	263	2630
37.3	264	2640
37.32	264	2640
37.34	264	2640
37.36	264	2640
37.38	264	2640
37.4	264	2640
37.42	264	2640
37.44	264	2640
37.46	264	2640
37.48	264	2640
37.5	264	2640
37.52	265	2650
37.54	265	2650
37.56	265	2650
37.58	265	2650
37.6	265	2650
37.62	265	2650
37.64	265	2650
37.66	265	2650
37.68	266	2660
37.7	266	2660
37.72	266	2660
37.74	266	2660
37.76	266	2660
37.78	266	2660
37.8	266	2660
37.82	267	2670
37.84	267	2670
37.86	267	2670
37.88	267	2670
37.9	267	2670
37.92	267	2670
37.94	267	2670
37.96	268	2680
37.98	268	2680
38	268	2680
38.02	269	2690
38.04	269	2690
38.06	269	2690
38.08	269	2690
38.1	270	2700
38.12	270	2700
38.14	270	2700
38.16	270	2700
38.18	271	2710
38.2	271	2710
38.22	272	2720
38.24	272	2720
38.26	272	2720
38.28	273	2730
38.3	273	2730
38.32	274	2740
38.34	274	2740
38.36	275	2750
38.38	275	2750
38.4	275	2750
38.42	276	2760
38.44	276	2760
38.46	277	2770
38.48	277	2770
38.5	278	2780
38.52	278	2780
38.54	279	2790
38.56	279	2790
38.58	280	2800
38.6	280	2800
38.62	280	2800
38.64	281	2810
38.66	281	2810
38.68	282	2820
38.7	282	2820
38.72	282	2820
38.74	283	2830
38.76	283	2830
38.78	284	2840
38.8	284	2840
38.82	285	2850
38.84	285	2850
38.86	286	2860
38.88	286	2860
38.9	287	2870
38.92	287	2870
38.94	288	2880
38.96	288	2880
38.98	288	2880
39	289	2890
39.02	290	2900
39.04	290	2900
39.06	291	2910
39.08	291	2910
39.1	292	2920
39.12	292	2920
39.14	293	2930
39.16	293	2930
39.18	294	2940
39.2	295	2950
39.22	295	2950
39.24	296	2960
39.26	296	2960
39.28	297	2970
39.3	298	2980
39.32	298	2980
39.34	299	2990
39.36	299	2990
39.38	300	3000
39.4	301	3010
39.42	301	3010
39.44	302	3020
39.46	302	3020
39.48	303	3030
39.5	303	3030
39.52	304	3040
39.54	305	3050
39.56	305	3050
39.58	306	3060
39.6	306	3060
39.62	307	3070
39.64	307	3070
39.66	308	3080
39.68	308	3080
39.7	308	3080
39.72	309	3090
39.74	309	3090
39.76	310	3100
39.78	310	3100
39.8	311	3110
39.82	311	3110
39.84	312	3120
39.86	312	3120
39.88	313	3130
39.9	313	3130
39.92	314	3140
39.94	314	3140
39.96	315	3150
39.98	315	3150
40	316	3160
40.02	316	3160
40.06	317	3170
40.07	317	3170
40.09	318	3180
40.1	318	3180
40.12	318	3180
40.14	319	3190
40.16	319	3190
40.18	320	3200
40.2	320	3200
40.22	321	3210
40.24	321	3210
40.26	322	3220
40.28	322	3220
40.3	322	3220
40.32	323	3230
40.34	323	3230
40.36	323	3230
40.38	324	3240
40.4	324	3240
40.42	324	3240
40.44	324	3240
40.46	325	3250
40.48	325	3250
40.5	325	3250
40.52	326	3260
40.54	326	3260
40.56	326	3260
40.58	326	3260
40.6	326	3260
40.62	327	3270
40.64	327	3270
40.66	327	3270
40.68	327	3270
40.7	328	3280
40.72	328	3280
40.74	328	3280
40.76	328	3280
40.78	328	3280
40.8	329	3290
40.82	329	3290
40.84	329	3290
40.86	329	3290
40.88	329	3290
40.9	329	3290
40.92	330	3300
40.94	330	3300
40.96	330	3300
40.98	330	3300
41	330	3300
41.02	330	3300
41.04	331	3310
41.06	331	3310
41.08	331	3310
41.1	331	3310
41.12	331	3310
41.14	332	3320
41.16	332	3320
41.18	332	3320
41.2	332	3320
41.22	332	3320
41.24	333	3330
41.26	333	3330
41.28	333	3330
41.3	333	3330
41.32	334	3340
41.34	334	3340
41.36	334	3340
41.38	334	3340
41.4	334	3340
41.42	334	3340
41.44	335	3350
41.46	335	3350
41.48	335	3350
41.5	335	3350
41.52	335	3350
41.54	335	3350
41.56	336	3360
41.58	336	3360
41.6	336	3360
41.62	336	3360
41.64	336	3360
41.66	336	3360
41.68	336	3360
41.7	336	3360
41.72	336	3360
41.74	337	3370
41.76	337	3370
41.78	337	3370
41.8	337	3370
41.82	337	3370
41.84	337	3370
41.86	337	3370
41.88	337	3370
41.9	337	3370
41.92	337	3370
41.94	337	3370
41.96	337	3370
41.98	337	3370
42	337	3370
42.02	337	3370
42.04	337	3370
42.06	337	3370
42.08	337	3370
42.1	337	3370
42.12	337	3370
42.14	338	3380
42.16	338	3380
42.18	338	3380
42.2	338	3380
42.22	338	3380
42.24	338	3380
42.26	338	3380
42.28	338	3380
42.3	338	3380
42.32	338	3380
42.34	338	3380
42.36	338	3380
42.38	338	3380
42.4	338	3380
42.42	338	3380
42.44	339	3390
42.46	339	3390
42.48	339	3390
42.5	339	3390
42.52	339	3390
42.54	339	3390
42.56	339	3390
42.58	339	3390
42.6	340	3400
42.62	340	3400
42.64	340	3400
42.66	340	3400
42.68	341	3410
42.7	341	3410
42.72	341	3410
42.74	341	3410
42.76	342	3420
42.78	342	3420
42.8	342	3420
42.82	343	3430
42.84	343	3430
42.86	343	3430
42.88	343	3430
42.9	344	3440
42.92	344	3440
42.94	344	3440
42.96	345	3450
42.98	345	3450
43	346	3460
43.02	346	3460
43.04	346	3460
43.06	347	3470
43.08	347	3470
43.1	347	3470
43.12	348	3480
43.14	348	3480
43.16	348	3480
43.18	349	3490
43.2	349	3490
43.22	349	3490
43.24	349	3490
43.26	350	3500
43.28	350	3500
43.3	350	3500
43.32	351	3510
43.34	351	3510
43.36	352	3520
43.38	352	3520
43.4	352	3520
43.42	353	3530
43.44	353	3530
43.46	353	3530
43.48	354	3540
43.5	354	3540
43.52	354	3540
43.54	355	3550
43.56	355	3550
43.58	355	3550
43.6	356	3560
43.62	356	3560
43.64	356	3560
43.66	357	3570
43.68	357	3570
43.7	358	3580
43.72	358	3580
43.74	358	3580
43.76	359	3590
43.78	359	3590
43.8	359	3590
43.82	360	3600
43.84	360	3600
43.86	361	3610
43.88	361	3610
43.9	362	3620
43.92	362	3620
43.94	362	3620
43.96	363	3630
43.98	363	3630
44	364	3640
44.02	364	3640
44.04	365	3650
44.06	365	3650
44.08	366	3660
44.1	366	3660
44.12	367	3670
44.14	367	3670
44.16	367	3670
44.18	368	3680
44.2	368	3680
44.22	369	3690
44.24	369	3690
44.26	370	3700
44.28	370	3700
44.3	371	3710
44.32	371	3710
44.34	372	3720
44.36	372	3720
44.38	373	3730
44.4	373	3730
44.42	374	3740
44.44	374	3740
44.46	375	3750
44.48	375	3750
44.5	376	3760
44.52	376	3760
44.54	377	3770
44.56	377	3770
44.58	378	3780
44.6	378	3780
44.62	379	3790
44.64	379	3790
44.66	380	3800
44.68	380	3800
44.7	381	3810
44.72	381	3810
44.74	382	3820
44.76	383	3830
44.78	383	3830
44.8	384	3840
44.82	384	3840
44.84	385	3850
44.86	385	3850
44.88	386	3860
44.9	386	3860
44.92	387	3870
44.94	388	3880
44.96	388	3880
44.98	389	3890
45	389	3890
45.02	390	3900
45.04	390	3900
45.06	391	3910
45.08	391	3910
45.1	392	3920
45.12	392	3920
45.14	393	3930
45.16	394	3940
45.18	394	3940
45.2	394	3940
45.22	395	3950
45.24	395	3950
45.26	396	3960
45.28	396	3960
45.3	397	3970
45.32	397	3970
45.34	397	3970
45.36	398	3980
45.38	398	3980
45.4	399	3990
45.42	399	3990
45.44	400	4000
45.46	400	4000
45.48	401	4010
45.5	401	4010
45.52	401	4010
45.54	402	4020
45.56	402	4020
45.58	403	4030
45.6	403	4030
45.62	404	4040
45.64	404	4040
45.66	405	4050
45.68	405	4050
45.7	406	4060
45.72	406	4060
45.74	407	4070
45.76	407	4070
45.78	408	4080
45.8	408	4080
45.82	408	4080
45.84	409	4090
45.86	409	4090
45.88	410	4100
45.9	410	4100
45.92	411	4110
45.94	411	4110
45.96	411	4110
45.98	412	4120
46	412	4120
46.02	413	4130
46.04	413	4130
46.07	413	4130
46.08	414	4140
46.1	414	4140
46.12	414	4140
46.14	414	4140
46.16	415	4150
46.18	415	4150
46.2	415	4150
46.22	415	4150
46.24	416	4160
46.26	416	4160
46.28	416	4160
46.3	416	4160
46.32	416	4160
46.34	417	4170
46.36	417	4170
46.39	417	4170
46.41	417	4170
46.42	418	4180
46.44	418	4180
46.46	418	4180
46.49	418	4180
46.5	418	4180
46.52	419	4190
46.54	419	4190
46.56	419	4190
46.58	419	4190
46.6	419	4190
46.62	420	4200
46.64	420	4200
46.66	420	4200
46.68	420	4200
46.7	420	4200
46.72	421	4210
46.74	421	4210
46.76	421	4210
46.78	421	4210
46.8	421	4210
46.82	421	4210
46.84	422	4220
46.86	422	4220
46.88	422	4220
46.91	422	4220
46.92	423	4230
46.94	423	4230
46.96	423	4230
46.98	423	4230
47	423	4230
47.02	424	4240
47.04	424	4240
47.06	424	4240
47.08	424	4240
47.1	424	4240
47.12	425	4250
47.14	425	4250
47.16	425	4250
47.18	425	4250
47.2	425	4250
47.22	425	4250
47.24	425	4250
47.26	426	4260
47.28	426	4260
47.3	426	4260
47.32	426	4260
47.34	426	4260
47.36	426	4260
47.38	426	4260
47.4	426	4260
47.42	426	4260
47.44	426	4260
47.46	427	4270
47.48	427	4270
47.5	427	4270
47.52	427	4270
47.54	427	4270
47.56	427	4270
47.58	427	4270
47.6	427	4270
47.62	427	4270
47.64	427	4270
47.66	427	4270
47.68	427	4270
47.7	427	4270
47.72	427	4270
47.74	427	4270
47.76	427	4270
47.78	427	4270
47.8	427	4270
47.82	427	4270
47.84	427	4270
47.86	427	4270
47.88	427	4270
47.9	427	4270
47.92	427	4270
47.94	428	4280
47.96	428	4280
47.98	428	4280
48	428	4280
48.02	428	4280
48.04	428	4280
48.06	428	4280
48.08	428	4280
48.1	428	4280
48.12	428	4280
48.14	428	4280
48.16	428	4280
48.18	429	4290
48.2	429	4290
48.23	429	4290
48.24	429	4290
48.26	429	4290
48.28	429	4290
48.3	430	4300
48.32	430	4300
48.34	430	4300
48.36	430	4300
48.38	430	4300
48.4	430	4300
48.42	431	4310
48.44	431	4310
48.46	431	4310
48.48	431	4310
48.5	432	4320
48.52	432	4320
48.54	432	4320
48.56	432	4320
48.58	432	4320
48.6	433	4330
48.62	433	4330
48.65	433	4330
48.66	433	4330
48.68	434	4340
48.7	434	4340
48.72	434	4340
48.74	434	4340
48.76	435	4350
48.78	435	4350
48.8	435	4350
48.82	435	4350
48.84	436	4360
48.86	436	4360
48.88	436	4360
48.9	436	4360
48.92	437	4370
48.94	437	4370
48.96	437	4370
48.98	437	4370
49	437	4370
49.02	437	4370
49.04	438	4380
49.06	438	4380
49.08	438	4380
49.1	438	4380
49.12	438	4380
49.14	438	4380
49.16	439	4390
49.18	439	4390
49.2	439	4390
49.22	439	4390
49.24	439	4390
49.26	439	4390
49.28	439	4390
49.3	440	4400
49.32	440	4400
49.34	440	4400
49.36	440	4400
49.38	440	4400
49.4	440	4400
49.42	440	4400
49.44	440	4400
49.47	441	4410
49.48	441	4410
49.5	441	4410
49.52	441	4410
49.54	441	4410
49.56	441	4410
49.58	441	4410
49.6	441	4410
49.62	441	4410
49.64	442	4420
49.66	442	4420
49.68	442	4420
49.7	442	4420
49.72	442	4420
49.74	442	4420
49.76	442	4420
49.78	442	4420
49.8	442	4420
49.82	442	4420
49.84	442	4420
49.86	442	4420
49.89	442	4420
49.9	443	4430
49.92	443	4430
49.94	443	4430
49.96	443	4430
49.98	443	4430
50	443	4430
50.02	443	4430
50.04	443	4430
50.06	443	4430
50.08	443	4430
50.1	443	4430
50.12	443	4430
50.14	443	4430
50.16	443	4430
50.18	443	4430
50.2	443	4430
50.22	444	4440
50.24	444	4440
50.26	444	4440
50.28	444	4440
50.3	444	4440
50.32	444	4440
50.34	444	4440
50.36	444	4440
50.38	444	4440
50.4	444	4440
50.42	445	4450
50.44	445	4450
50.46	445	4450
50.48	445	4450
50.5	445	4450
50.52	445	4450
50.54	445	4450
50.56	445	4450
50.58	445	4450
50.6	445	4450
50.62	445	4450
50.64	445	4450
50.66	445	4450
50.68	445	4450
50.7	445	4450
50.72	446	4460
50.74	446	4460
50.76	446	4460
50.78	446	4460
50.8	446	4460
50.82	446	4460
50.84	446	4460
50.86	447	4470
50.88	447	4470
50.9	447	4470
50.92	447	4470
50.94	447	4470
50.96	447	4470
50.98	447	4470
51	448	4480
51.02	448	4480
51.04	448	4480
51.06	448	4480
51.08	448	4480
51.1	448	4480
51.12	449	4490
51.14	449	4490
51.16	449	4490
51.18	449	4490
51.2	449	4490
51.22	449	4490
51.24	450	4500
51.26	450	4500
51.28	450	4500
51.3	450	4500
51.32	450	4500
51.34	451	4510
51.36	451	4510
51.38	451	4510
51.4	451	4510
51.42	451	4510
51.44	451	4510
51.46	452	4520
51.48	452	4520
51.5	452	4520
51.52	453	4530
51.54	453	4530
51.56	453	4530
51.58	454	4540
51.6	454	4540
51.62	454	4540
51.64	454	4540
51.66	455	4550
51.68	455	4550
51.7	455	4550
51.72	456	4560
51.74	456	4560
51.76	456	4560
51.78	457	4570
51.8	457	4570
51.82	457	4570
51.84	458	4580
51.86	458	4580
51.88	458	4580
51.9	459	4590
51.92	459	4590
51.94	459	4590
51.96	460	4600
51.98	460	4600
52	461	4610
52.02	461	4610
52.04	461	4610
52.06	462	4620
52.08	462	4620
52.1	463	4630
52.12	463	4630
52.14	463	4630
52.16	464	4640
52.18	464	4640
52.2	465	4650
52.22	465	4650
52.24	465	4650
52.26	466	4660
52.28	466	4660
52.3	466	4660
52.32	467	4670
52.34	467	4670
52.36	468	4680
52.38	468	4680
52.4	468	4680
52.42	469	4690
52.44	469	4690
52.46	470	4700
52.48	470	4700
52.5	471	4710
52.52	471	4710
52.54	472	4720
52.56	472	4720
52.58	472	4720
52.6	473	4730
52.62	474	4740
52.64	474	4740
52.66	474	4740
52.68	475	4750
52.7	475	4750
52.72	476	4760
52.74	477	4770
52.76	477	4770
52.78	478	4780
52.8	478	4780
52.82	479	4790
52.84	479	4790
52.86	480	4800
52.88	480	4800
52.9	481	4810
52.92	481	4810
52.94	482	4820
52.96	482	4820
52.98	483	4830
53	484	4840
53.02	484	4840
53.04	485	4850
53.06	485	4850
53.08	486	4860
53.1	486	4860
53.12	487	4870
53.14	487	4870
53.16	488	4880
53.18	489	4890
53.2	489	4890
53.22	490	4900
53.24	490	4900
53.26	491	4910
53.28	491	4910
53.3	492	4920
53.32	493	4930
53.34	493	4930
53.36	494	4940
53.38	494	4940
53.4	495	4950
53.42	495	4950
53.44	496	4960
53.46	496	4960
53.48	497	4970
53.5	498	4980
53.52	498	4980
53.54	499	4990
53.56	499	4990
53.58	500	5000
53.6	500	5000
53.62	501	5010
53.64	502	5020
53.66	502	5020
53.68	503	5030
53.7	503	5030
53.72	504	5040
53.74	505	5050
53.76	505	5050
53.78	506	5060
53.8	507	5070
53.82	507	5070
53.84	508	5080
53.86	508	5080
53.88	509	5090
53.9	509	5090
53.92	510	5100
53.94	510	5100
53.96	511	5110
53.98	511	5110
54	512	5120
54.02	512	5120
54.04	513	5130
54.06	513	5130
54.08	514	5140
54.1	514	5140
54.12	515	5150
54.14	515	5150
54.16	515	5150
54.18	516	5160
54.2	516	5160
54.22	517	5170
54.24	517	5170
54.26	517	5170
54.28	518	5180
54.3	518	5180
54.32	519	5190
54.34	519	5190
54.36	520	5200
54.38	520	5200
54.4	520	5200
54.42	521	5210
54.44	521	5210
54.46	522	5220
54.48	522	5220
54.5	522	5220
54.52	523	5230
54.54	523	5230
54.56	524	5240
54.58	524	5240
54.6	524	5240
54.62	525	5250
54.64	525	5250
54.66	526	5260
54.68	526	5260
54.7	526	5260
54.72	527	5270
54.74	527	5270
54.76	527	5270
54.78	528	5280
54.8	528	5280
54.82	528	5280
54.84	528	5280
54.86	529	5290
54.88	529	5290
54.9	529	5290
54.92	529	5290
54.94	529	5290
54.96	530	5300
54.98	530	5300
55	530	5300
55.02	530	5300
55.04	530	5300
55.06	530	5300
55.08	530	5300
55.1	531	5310
55.12	531	5310
55.14	531	5310
55.16	531	5310
55.18	531	5310
55.2	531	5310
55.22	531	5310
55.24	531	5310
55.26	531	5310
55.28	532	5320
55.3	532	5320
55.32	532	5320
55.34	532	5320
55.36	532	5320
55.38	532	5320
55.4	532	5320
55.42	532	5320
55.44	532	5320
55.46	532	5320
55.48	532	5320
55.5	532	5320
55.52	532	5320
55.54	532	5320
55.56	532	5320
55.58	532	5320
55.6	532	5320
55.62	532	5320
55.64	532	5320
55.66	532	5320
55.68	533	5330
55.7	533	5330
55.72	533	5330
55.74	533	5330
55.76	533	5330
55.78	533	5330
55.8	533	5330
55.82	533	5330
55.84	533	5330
55.86	533	5330
55.88	533	5330
55.9	534	5340
55.92	534	5340
55.94	534	5340
55.96	534	5340
55.98	534	5340
56	534	5340
56.02	534	5340
56.04	535	5350
56.06	535	5350
56.08	535	5350
56.1	535	5350
56.12	535	5350
56.14	535	5350
56.16	535	5350
56.18	536	5360
56.2	536	5360
56.22	536	5360
56.24	536	5360
56.26	536	5360
56.28	537	5370
56.3	537	5370
56.32	537	5370
56.34	537	5370
56.36	537	5370
56.38	538	5380
56.4	538	5380
56.42	538	5380
56.44	538	5380
56.46	539	5390
56.48	539	5390
56.5	539	5390
56.52	539	5390
56.54	539	5390
56.56	540	5400
56.58	540	5400
56.6	540	5400
56.62	540	5400
56.64	541	5410
56.66	541	5410
56.68	541	5410
56.7	541	5410
56.72	541	5410
56.74	542	5420
56.76	542	5420
56.78	542	5420
56.8	542	5420
56.82	543	5430
56.84	543	5430
56.86	543	5430
56.88	543	5430
56.9	544	5440
56.92	544	5440
56.94	544	5440
56.96	545	5450
56.98	545	5450
57	545	5450
57.02	546	5460
57.04	546	5460
57.06	546	5460
57.08	546	5460
57.1	547	5470
57.12	547	5470
57.14	547	5470
57.16	548	5480
57.18	548	5480
57.2	549	5490
57.22	549	5490
57.24	549	5490
57.26	550	5500
57.28	550	5500
57.3	551	5510
57.32	551	5510
57.34	551	5510
57.36	552	5520
57.38	552	5520
57.4	553	5530
57.42	553	5530
57.44	553	5530
57.46	554	5540
57.48	554	5540
57.5	555	5550
57.52	555	5550
57.54	556	5560
57.56	556	5560
57.58	556	5560
57.6	557	5570
57.62	557	5570
57.64	558	5580
57.66	558	5580
57.68	559	5590
57.7	559	5590
57.72	559	5590
57.74	560	5600
57.76	560	5600
57.78	561	5610
57.8	561	5610
57.82	562	5620
57.84	562	5620
57.86	562	5620
57.88	563	5630
57.9	563	5630
57.92	564	5640
57.94	564	5640
57.96	565	5650
57.98	565	5650
58	566	5660
58.02	566	5660
58.04	566	5660
58.06	567	5670
58.08	567	5670
58.1	568	5680
58.12	568	5680
58.14	569	5690
58.16	569	5690
58.18	570	5700
58.2	570	5700
58.22	571	5710
58.24	571	5710
58.26	572	5720
58.28	572	5720
58.3	573	5730
58.32	574	5740
58.34	574	5740
58.36	575	5750
58.38	575	5750
58.4	576	5760
58.42	576	5760
58.44	577	5770
58.46	577	5770
58.48	578	5780
58.5	578	5780
58.52	579	5790
58.54	579	5790
58.56	580	5800
58.58	580	5800
58.6	580	5800
58.62	581	5810
58.64	581	5810
58.66	582	5820
58.68	582	5820
58.7	583	5830
58.72	583	5830
58.74	583	5830
58.76	584	5840
58.78	584	5840
58.8	585	5850
58.82	585	5850
58.84	586	5860
58.86	586	5860
58.88	587	5870
58.9	587	5870
58.92	588	5880
58.94	588	5880
58.96	588	5880
58.98	589	5890
59	589	5890
59.02	590	5900
59.04	590	5900
59.06	591	5910
59.08	591	5910
59.1	592	5920
59.12	592	5920
59.14	593	5930
59.16	593	5930
59.18	593	5930
59.2	594	5940
59.22	594	5940
59.24	594	5940
59.26	595	5950
59.28	595	5950
59.3	595	5950
59.32	596	5960
59.34	596	5960
59.36	596	5960
59.38	597	5970
59.4	597	5970
59.42	598	5980
59.44	598	5980
59.46	598	5980
59.48	598	5980
59.5	598	5980
59.52	599	5990
59.54	599	5990
59.56	599	5990
59.58	599	5990
59.6	600	6000
59.62	600	6000
59.64	600	6000
59.66	600	6000
59.68	600	6000
59.7	601	6010
59.72	601	6010
59.74	601	6010
59.76	601	6010
59.78	601	6010
59.8	601	6010
59.82	601	6010
59.84	601	6010
59.86	602	6020
59.88	602	6020
59.9	602	6020
59.92	602	6020
59.94	602	6020
59.96	602	6020
59.98	602	6020
60	602	6020
60.02	602	6020
60.04	603	6030
60.06	603	6030
60.08	603	6030
60.1	603	6030
60.12	603	6030
60.14	603	6030
60.16	603	6030
60.18	604	6040
60.2	604	6040
60.22	604	6040
60.24	604	6040
60.26	604	6040
60.28	604	6040
60.3	604	6040
60.32	605	6050
60.34	605	6050
60.36	605	6050
60.38	605	6050
60.4	605	6050
60.42	605	6050
60.44	606	6060
60.46	606	6060
60.48	606	6060
60.5	606	6060
60.52	606	6060
60.54	607	6070
60.56	607	6070
60.58	607	6070
60.6	607	6070
60.62	607	6070
60.64	608	6080
60.66	608	6080
60.68	608	6080
60.7	608	6080
60.72	608	6080
60.74	609	6090
60.76	609	6090
60.78	609	6090
60.8	609	6090
60.82	609	6090
60.84	610	6100
60.86	610	6100
60.88	610	6100
60.9	610	6100
60.92	611	6110
60.94	611	6110
60.96	611	6110
60.98	611	6110
61	611	6110
61.02	611	6110
61.04	612	6120
61.06	612	6120
61.08	612	6120
61.1	612	6120
61.12	613	6130
61.14	613	6130
61.16	613	6130
61.18	613	6130
61.2	614	6140
61.22	614	6140
61.24	614	6140
61.26	614	6140
61.28	614	6140
61.3	615	6150
61.32	615	6150
61.34	615	6150
61.36	615	6150
61.38	615	6150
61.4	616	6160
61.42	616	6160
61.44	616	6160
61.46	616	6160
61.48	617	6170
61.5	617	6170
61.52	617	6170
61.54	618	6180
61.56	618	6180
61.58	618	6180
61.6	619	6190
61.62	619	6190
61.64	619	6190
61.66	619	6190
61.68	620	6200
61.7	620	6200
61.72	621	6210
61.74	621	6210
61.76	621	6210
61.78	622	6220
61.8	622	6220
61.82	622	6220
61.84	623	6230
61.86	623	6230
61.88	623	6230
61.9	624	6240
61.92	624	6240
61.94	624	6240
61.96	625	6250
61.98	625	6250
62	626	6260
62.02	626	6260
62.04	626	6260
62.06	627	6270
62.08	627	6270
62.1	627	6270
62.12	628	6280
62.14	628	6280
62.16	629	6290
62.18	629	6290
62.2	629	6290
62.22	630	6300
62.24	630	6300
62.26	631	6310
62.28	631	6310
62.3	631	6310
62.32	631	6310
62.34	632	6320
62.36	632	6320
62.38	633	6330
62.4	633	6330
62.42	634	6340
62.44	634	6340
62.46	634	6340
62.48	635	6350
62.5	635	6350
62.52	635	6350
62.54	636	6360
62.56	636	6360
62.58	637	6370
62.6	637	6370
62.62	637	6370
62.64	638	6380
62.66	638	6380
62.68	639	6390
62.7	639	6390
62.72	640	6400
62.74	640	6400
62.76	640	6400
62.78	641	6410
62.8	641	6410
62.82	642	6420
62.84	642	6420
62.86	643	6430
62.88	643	6430
62.9	643	6430
62.92	644	6440
62.94	644	6440
62.96	645	6450
62.98	645	6450
63	646	6460
63.02	646	6460
63.04	647	6470
63.06	647	6470
63.08	648	6480
63.1	648	6480
63.12	649	6490
63.14	649	6490
63.16	649	6490
63.18	650	6500
63.2	650	6500
63.22	651	6510
63.24	651	6510
63.26	651	6510
63.28	652	6520
63.3	652	6520
63.32	653	6530
63.34	653	6530
63.36	654	6540
63.38	654	6540
63.4	655	6550
63.42	655	6550
63.44	655	6550
63.46	656	6560
63.48	657	6570
63.5	657	6570
63.52	657	6570
63.54	658	6580
63.56	658	6580
63.58	659	6590
63.6	659	6590
63.62	660	6600
63.64	660	6600
63.66	660	6600
63.68	661	6610
63.7	661	6610
63.72	661	6610
63.74	662	6620
63.76	662	6620
63.78	663	6630
63.8	663	6630
63.82	664	6640
63.84	664	6640
63.86	664	6640
63.88	665	6650
63.9	665	6650
63.92	666	6660
63.94	666	6660
63.96	666	6660
63.98	667	6670
64	667	6670
64.02	667	6670
64.04	667	6670
64.06	668	6680
64.08	668	6680
64.1	668	6680
64.12	669	6690
64.14	669	6690
64.16	669	6690
64.18	670	6700
64.2	670	6700
64.22	670	6700
64.24	670	6700
64.26	671	6710
64.28	671	6710
64.3	671	6710
64.32	671	6710
64.34	672	6720
64.36	672	6720
64.38	672	6720
64.41	672	6720
64.43	672	6720
64.44	673	6730
64.46	673	6730
64.48	673	6730
64.51	673	6730
64.52	673	6730
64.54	674	6740
64.56	674	6740
64.58	674	6740
64.6	674	6740
64.62	674	6740
64.64	675	6750
64.66	675	6750
64.68	675	6750
64.7	675	6750
64.72	675	6750
64.74	676	6760
64.76	676	6760
64.78	676	6760
64.8	676	6760
64.82	676	6760
64.84	677	6770
64.86	677	6770
64.88	677	6770
64.9	677	6770
64.93	678	6780
64.95	678	6780
64.96	678	6780
64.98	678	6780
65	679	6790
65.02	679	6790
65.04	679	6790
65.06	679	6790
65.08	679	6790
65.1	680	6800
65.12	680	6800
65.14	680	6800
65.16	680	6800
65.18	680	6800
65.2	681	6810
65.22	681	6810
65.24	681	6810
65.26	681	6810
65.28	682	6820
65.3	682	6820
65.32	682	6820
65.34	682	6820
65.36	682	6820
65.38	683	6830
65.4	683	6830
65.42	683	6830
65.44	683	6830
65.46	683	6830
65.48	683	6830
65.5	684	6840
65.52	684	6840
65.54	684	6840
65.56	684	6840
65.58	684	6840
65.6	685	6850
65.62	685	6850
65.64	685	6850
65.66	685	6850
65.68	685	6850
65.7	686	6860
65.72	686	6860
65.74	686	6860
65.76	686	6860
65.78	686	6860
65.8	686	6860
65.82	687	6870
65.84	687	6870
65.86	687	6870
65.88	687	6870
65.9	687	6870
65.92	687	6870
65.94	688	6880
65.96	688	6880
65.98	688	6880
66	688	6880
66.02	689	6890
66.04	689	6890
66.06	689	6890
66.08	689	6890
66.1	690	6900
66.12	690	6900
66.14	690	6900
66.16	690	6900
66.18	691	6910
66.2	691	6910
66.22	691	6910
66.24	691	6910
66.26	692	6920
66.28	692	6920
66.3	692	6920
66.32	693	6930
66.34	693	6930
66.36	693	6930
66.38	694	6940
66.4	694	6940
66.42	694	6940
66.44	694	6940
66.46	695	6950
66.48	695	6950
66.5	695	6950
66.52	696	6960
66.54	696	6960
66.56	696	6960
66.58	696	6960
66.6	697	6970
66.62	697	6970
66.64	697	6970
66.66	698	6980
66.68	698	6980
66.7	698	6980
66.72	699	6990
66.74	699	6990
66.76	699	6990
66.78	699	6990
66.8	700	7000
66.82	700	7000
66.84	700	7000
66.86	700	7000
66.88	701	7010
66.9	701	7010
66.92	701	7010
66.94	702	7020
66.96	702	7020
66.98	702	7020
67	702	7020
67.02	703	7030
67.04	703	7030
67.06	703	7030
67.08	703	7030
67.1	704	7040
67.12	704	7040
67.14	704	7040
67.16	705	7050
67.18	705	7050
67.2	705	7050
67.22	706	7060
67.24	706	7060
67.26	706	7060
67.28	707	7070
67.3	707	7070
67.32	707	7070
67.34	708	7080
67.36	708	7080
67.38	708	7080
67.4	709	7090
67.42	709	7090
67.44	709	7090
67.46	710	7100
67.48	710	7100
67.5	710	7100
67.52	711	7110
67.54	711	7110
67.56	711	7110
67.58	712	7120
67.6	712	7120
67.62	712	7120
67.64	713	7130
67.66	713	7130
67.68	714	7140
67.7	714	7140
67.72	714	7140
67.74	715	7150
67.76	715	7150
67.78	715	7150
67.8	716	7160
67.82	716	7160
67.84	716	7160
67.86	717	7170
67.88	717	7170
67.9	718	7180
67.92	718	7180
67.96	719	7190
67.97	719	7190
67.98	719	7190
68	719	7190
68.02	720	7200
68.04	720	7200
68.06	720	7200
68.08	721	7210
68.1	721	7210
68.12	721	7210
68.14	722	7220
68.16	722	7220
68.18	722	7220
68.2	723	7230
68.22	723	7230
68.24	723	7230
68.26	724	7240
68.28	724	7240
68.3	725	7250
68.32	725	7250
68.34	725	7250
68.36	726	7260
68.38	726	7260
68.4	726	7260
68.42	727	7270
68.44	727	7270
68.46	728	7280
68.48	728	7280
68.5	728	7280
68.52	729	7290
68.54	729	7290
68.56	730	7300
68.58	730	7300
68.6	730	7300
68.62	731	7310
68.64	731	7310
68.66	732	7320
68.68	732	7320
68.7	732	7320
68.72	733	7330
68.74	733	7330
68.76	734	7340
68.78	734	7340
68.8	734	7340
68.82	735	7350
68.84	735	7350
68.86	735	7350
68.88	736	7360
68.9	736	7360
68.92	737	7370
68.94	737	7370
68.96	737	7370
68.98	738	7380
69	738	7380
69.02	738	7380
69.04	739	7390
69.06	739	7390
69.08	739	7390
69.1	739	7390
69.12	740	7400
69.14	740	7400
69.16	741	7410
69.18	741	7410
69.2	741	7410
69.22	742	7420
69.24	742	7420
69.26	742	7420
69.28	743	7430
69.3	743	7430
69.32	743	7430
69.34	744	7440
69.36	744	7440
69.38	744	7440
69.4	745	7450
69.42	745	7450
69.44	745	7450
69.46	746	7460
69.48	746	7460
69.5	746	7460
69.52	747	7470
69.54	747	7470
69.56	748	7480
69.58	748	7480
69.6	748	7480
69.62	749	7490
69.64	749	7490
69.66	750	7500
69.68	750	7500
69.7	750	7500
69.72	751	7510
69.74	751	7510
69.76	751	7510
69.78	752	7520
69.8	752	7520
69.82	752	7520
69.84	753	7530
69.86	753	7530
69.88	754	7540
69.9	754	7540
69.92	754	7540
69.94	755	7550
69.96	755	7550
69.98	755	7550
70	756	7560
70.02	756	7560
70.04	756	7560
70.06	757	7570
70.08	757	7570
70.1	757	7570
70.12	757	7570
70.14	758	7580
70.16	758	7580
70.18	758	7580
70.2	759	7590
70.22	759	7590
70.24	760	7600
70.26	760	7600
70.28	760	7600
70.3	761	7610
70.32	761	7610
70.34	761	7610
70.36	762	7620
70.38	762	7620
70.4	762	7620
70.42	762	7620
70.44	763	7630
70.46	763	7630
70.48	763	7630
70.5	764	7640
70.52	764	7640
70.54	764	7640
70.56	765	7650
70.58	765	7650
70.6	765	7650
70.62	766	7660
70.64	766	7660
70.66	766	7660
70.68	767	7670
70.7	767	7670
70.72	767	7670
70.74	768	7680
70.76	768	7680
70.78	768	7680
70.8	769	7690
70.82	769	7690
70.84	769	7690
70.86	769	7690
70.88	770	7700
70.9	770	7700
70.92	770	7700
70.94	771	7710
70.96	771	7710
70.98	771	7710
71	772	7720
71.02	772	7720
71.04	772	7720
71.06	772	7720
71.08	773	7730
71.1	773	7730
71.12	773	7730
71.14	773	7730
71.16	774	7740
71.18	774	7740
71.2	774	7740
71.22	774	7740
71.24	775	7750
71.26	775	7750
71.28	775	7750
71.3	775	7750
71.32	775	7750
71.34	775	7750
71.36	776	7760
71.38	776	7760
71.4	776	7760
71.42	776	7760
71.44	777	7770
71.46	777	7770
71.48	777	7770
71.5	777	7770
71.52	778	7780
71.54	778	7780
71.56	778	7780
71.58	778	7780
71.6	778	7780
71.62	778	7780
71.64	779	7790
71.66	779	7790
71.68	779	7790
71.7	779	7790
71.72	780	7800
71.74	780	7800
71.76	780	7800
71.78	780	7800
71.8	780	7800
71.82	781	7810
71.84	781	7810
71.86	781	7810
71.88	781	7810
71.9	782	7820
71.92	782	7820
71.94	782	7820
71.96	782	7820
71.98	782	7820
72	783	7830
72.02	783	7830
72.04	783	7830
72.06	784	7840
72.08	784	7840
72.1	784	7840
72.12	784	7840
72.14	784	7840
72.16	785	7850
72.18	785	7850
72.2	785	7850
72.22	785	7850
72.24	786	7860
72.26	786	7860
72.28	786	7860
72.3	786	7860
72.32	787	7870
72.34	787	7870
72.36	787	7870
72.38	787	7870
72.4	787	7870
72.42	787	7870
72.44	788	7880
72.46	788	7880
72.48	788	7880
72.5	788	7880
72.52	789	7890
72.54	789	7890
72.56	789	7890
72.58	789	7890
72.6	789	7890
72.62	789	7890
72.64	790	7900
72.66	790	7900
72.68	790	7900
72.7	790	7900
72.72	790	7900
72.74	790	7900
72.76	791	7910
72.78	791	7910
72.8	791	7910
72.82	791	7910
72.84	791	7910
72.86	791	7910
72.88	791	7910
72.9	792	7920
72.92	792	7920
72.94	792	7920
72.96	792	7920
72.98	792	7920
73	792	7920
73.02	793	7930
73.04	793	7930
73.06	793	7930
73.08	793	7930
73.1	793	7930
73.12	793	7930
73.14	793	7930
73.16	794	7940
73.18	794	7940
73.2	794	7940
73.22	794	7940
73.24	794	7940
73.26	794	7940
73.28	795	7950
73.3	795	7950
73.32	795	7950
73.34	795	7950
73.36	795	7950
73.38	795	7950
73.4	795	7950
73.42	796	7960
73.44	796	7960
73.46	796	7960
73.48	796	7960
73.5	796	7960
73.52	796	7960
73.54	796	7960
73.56	796	7960
73.58	797	7970
73.6	797	7970
73.62	797	7970
73.64	797	7970
73.66	797	7970
73.68	797	7970
73.7	797	7970
73.72	797	7970
73.74	797	7970
73.76	797	7970
73.78	797	7970
73.8	797	7970
73.82	797	7970
73.84	797	7970
73.86	798	7980
73.88	798	7980
73.9	798	7980
73.92	798	7980
73.94	798	7980
73.96	798	7980
73.98	798	7980
74	798	7980
74.02	798	7980
74.04	798	7980
74.06	798	7980
74.08	798	7980
74.1	798	7980
74.12	798	7980
74.14	798	7980
74.16	798	7980
74.18	798	7980
74.2	798	7980
74.22	799	7990
74.24	799	7990
74.26	799	7990
74.28	799	7990
74.3	799	7990
74.32	799	7990
74.34	799	7990
74.36	799	7990
74.38	800	8000
74.4	800	8000
74.42	800	8000
74.44	800	8000
74.46	800	8000
74.48	801	8010
74.5	801	8010
74.52	801	8010
74.54	801	8010
74.56	801	8010
74.58	802	8020
74.6	802	8020
74.62	802	8020
74.64	802	8020
74.66	802	8020
74.68	802	8020
74.7	803	8030
74.72	803	8030
74.74	803	8030
74.76	803	8030
74.78	803	8030
74.8	804	8040
74.82	804	8040
74.84	804	8040
74.86	804	8040
74.88	805	8050
74.9	805	8050
74.92	805	8050
74.94	805	8050
74.96	806	8060
74.98	806	8060
75	806	8060
75.02	806	8060
75.04	807	8070
75.06	807	8070
75.08	807	8070
75.1	807	8070
75.12	807	8070
75.14	808	8080
75.16	808	8080
75.18	808	8080
75.2	809	8090
75.22	809	8090
75.24	809	8090
75.26	809	8090
75.28	810	8100
75.3	810	8100
75.32	810	8100
75.34	810	8100
75.36	811	8110
75.38	811	8110
75.4	811	8110
75.42	812	8120
75.44	812	8120
75.46	812	8120
75.48	813	8130
75.5	813	8130
75.52	813	8130
75.54	813	8130
75.56	814	8140
75.58	814	8140
75.6	814	8140
75.62	815	8150
75.64	815	8150
75.66	815	8150
75.68	816	8160
75.7	816	8160
75.72	816	8160
75.74	817	8170
75.76	817	8170
75.78	817	8170
75.8	818	8180
75.82	818	8180
75.84	819	8190
75.86	819	8190
75.88	820	8200
75.9	820	8200
75.92	820	8200
75.94	820	8200
75.96	821	8210
75.98	821	8210
76	821	8210
76.02	822	8220
76.04	822	8220
76.06	823	8230
76.08	823	8230
76.1	823	8230
76.12	824	8240
76.14	824	8240
76.16	825	8250
76.18	825	8250
76.2	825	8250
76.22	826	8260
76.24	826	8260
76.26	827	8270
76.28	827	8270
76.3	827	8270
76.32	828	8280
76.34	828	8280
76.36	829	8290
76.38	829	8290
76.4	829	8290
76.42	830	8300
76.44	830	8300
76.46	831	8310
76.48	831	8310
76.5	832	8320
76.52	832	8320
76.54	832	8320
76.56	833	8330
76.58	833	8330
76.6	834	8340
76.62	834	8340
76.64	835	8350
76.66	835	8350
76.68	836	8360
76.7	836	8360
76.72	837	8370
76.74	837	8370
76.76	838	8380
76.78	838	8380
76.8	839	8390
76.82	839	8390
76.84	840	8400
76.86	840	8400
76.88	841	8410
76.9	841	8410
76.92	841	8410
76.94	842	8420
76.96	842	8420
76.98	843	8430
77	843	8430
77.02	844	8440
77.04	844	8440
77.06	845	8450
77.08	845	8450
77.1	846	8460
77.12	846	8460
77.14	847	8470
77.16	847	8470
77.18	847	8470
77.2	848	8480
77.22	849	8490
77.24	849	8490
77.26	849	8490
77.28	850	8500
77.3	850	8500
77.32	851	8510
77.34	851	8510
77.36	852	8520
77.38	853	8530
77.4	853	8530
77.42	854	8540
77.44	854	8540
77.46	855	8550
77.48	856	8560
77.5	856	8560
77.52	857	8570
77.54	857	8570
77.56	858	8580
77.58	858	8580
77.6	859	8590
77.62	860	8600
77.64	861	8610
77.66	861	8610
77.68	862	8620
77.7	862	8620
77.72	863	8630
77.74	864	8640
77.76	864	8640
77.78	865	8650
77.8	865	8650
77.82	866	8660
77.84	867	8670
77.86	867	8670
77.88	868	8680
77.9	869	8690
77.92	869	8690
77.94	870	8700
77.96	871	8710
77.98	871	8710
78	872	8720
78.02	873	8730
78.04	873	8730
78.06	874	8740
78.08	875	8750
78.1	875	8750
78.12	876	8760
78.14	877	8770
78.16	877	8770
78.18	878	8780
78.2	879	8790
78.22	879	8790
78.24	880	8800
78.26	881	8810
78.28	881	8810
78.3	882	8820
78.32	883	8830
78.34	883	8830
78.36	884	8840
78.38	885	8850
78.4	885	8850
78.42	886	8860
78.44	886	8860
78.46	887	8870
78.48	888	8880
78.5	888	8880
78.52	889	8890
78.54	889	8890
78.56	890	8900
78.58	891	8910
78.6	892	8920
78.62	892	8920
78.64	893	8930
78.66	893	8930
78.68	894	8940
78.7	895	8950
78.72	895	8950
78.74	896	8960
78.76	897	8970
78.78	897	8970
78.8	898	8980
78.82	898	8980
78.84	899	8990
78.86	900	9000
78.88	900	9000
78.9	901	9010
78.92	901	9010
78.94	902	9020
78.96	903	9030
78.98	903	9030
79	904	9040
79.02	905	9050
79.04	905	9050
79.06	906	9060
79.08	907	9070
79.1	907	9070
79.12	908	9080
79.14	909	9090
79.16	909	9090
79.18	910	9100
79.2	910	9100
79.22	911	9110
79.24	911	9110
79.26	912	9120
79.28	913	9130
79.3	913	9130
79.32	914	9140
79.34	914	9140
79.36	915	9150
79.38	916	9160
79.4	916	9160
79.42	917	9170
79.44	917	9170
79.46	918	9180
79.48	919	9190
79.5	919	9190
79.52	920	9200
79.54	921	9210
79.56	921	9210
79.58	922	9220
79.6	922	9220
79.62	923	9230
79.64	924	9240
79.66	924	9240
79.68	925	9250
79.7	926	9260
79.72	926	9260
79.74	927	9270
79.76	928	9280
79.78	929	9290
79.8	929	9290
79.82	930	9300
79.84	931	9310
79.86	932	9320
79.88	932	9320
79.9	933	9330
79.92	934	9340
79.94	934	9340
79.96	935	9350
79.98	936	9360
80	937	9370
80.02	937	9370
80.04	938	9380
80.06	939	9390
80.08	939	9390
80.1	940	9400
80.12	941	9410
80.14	942	9420
80.16	942	9420
80.18	943	9430
80.2	944	9440
80.22	945	9450
80.24	945	9450
80.26	946	9460
80.28	947	9470
80.3	947	9470
80.32	948	9480
80.34	949	9490
80.36	950	9500
80.38	950	9500
80.4	951	9510
80.42	952	9520
80.44	952	9520
80.46	953	9530
80.48	954	9540
80.5	955	9550
80.52	955	9550
80.54	956	9560
80.56	957	9570
80.58	957	9570
80.6	958	9580
80.62	959	9590
80.64	959	9590
80.66	960	9600
80.68	961	9610
80.7	961	9610
80.72	962	9620
80.74	963	9630
80.76	964	9640
80.78	964	9640
80.8	965	9650
80.82	965	9650
80.84	966	9660
80.86	967	9670
80.88	967	9670
80.9	968	9680
80.92	969	9690
80.94	969	9690
80.96	970	9700
80.98	971	9710
81	971	9710
81.02	972	9720
81.04	973	9730
81.06	973	9730
81.08	974	9740
81.1	975	9750
81.12	975	9750
81.14	976	9760
81.16	977	9770
81.18	977	9770
81.2	978	9780
81.22	979	9790
81.24	979	9790
81.26	980	9800
81.28	981	9810
81.3	981	9810
81.32	982	9820
81.34	983	9830
81.36	983	9830
81.38	984	9840
81.4	985	9850
81.42	985	9850
81.44	986	9860
81.46	987	9870
81.48	987	9870
81.5	988	9880
81.52	988	9880
81.54	989	9890
81.56	990	9900
81.58	990	9900
81.6	991	9910
81.62	991	9910
81.64	992	9920
81.66	993	9930
81.68	993	9930
81.7	994	9940
81.72	995	9950
81.74	995	9950
81.76	996	9960
81.78	997	9970
81.8	997	9970
81.82	998	9980
81.84	999	9990
81.86	999	9990
81.88	1000	10000
81.9	1001	10010
81.92	1001	10010
81.94	1002	10020
81.96	1003	10030
81.98	1004	10040
82	1004	10040
82.02	1005	10050
82.04	1006	10060
82.06	1007	10070
82.08	1007	10070
82.1	1008	10080
82.12	1009	10090
82.14	1009	10090
82.16	1010	10100
82.18	1011	10110
82.2	1012	10120
82.22	1012	10120
82.24	1013	10130
82.26	1014	10140
82.28	1014	10140
82.3	1015	10150
82.32	1016	10160
82.34	1016	10160
82.36	1017	10170
82.38	1018	10180
82.4	1018	10180
82.42	1019	10190
82.44	1020	10200
82.46	1020	10200
82.48	1021	10210
82.5	1022	10220
82.52	1022	10220
82.54	1023	10230
82.56	1024	10240
82.58	1024	10240
82.6	1025	10250
82.62	1025	10250
82.64	1026	10260
82.66	1027	10270
82.68	1027	10270
82.7	1028	10280
82.72	1029	10290
82.74	1029	10290
82.76	1030	10300
82.78	1031	10310
82.8	1031	10310
82.82	1032	10320
82.84	1032	10320
82.86	1033	10330
82.88	1034	10340
82.9	1034	10340
82.92	1035	10350
82.94	1036	10360
82.96	1036	10360
82.98	1037	10370
83	1037	10370
83.02	1038	10380
83.04	1039	10390
83.06	1039	10390
83.08	1040	10400
83.1	1041	10410
83.12	1041	10410
83.14	1042	10420
83.16	1043	10430
83.18	1043	10430
83.2	1044	10440
83.22	1044	10440
83.24	1045	10450
83.26	1046	10460
83.28	1046	10460
83.3	1047	10470
83.32	1048	10480
83.34	1048	10480
83.36	1049	10490
83.38	1050	10500
83.4	1050	10500
83.42	1051	10510
83.44	1051	10510
83.46	1052	10520
83.48	1053	10530
83.5	1053	10530
83.52	1054	10540
83.54	1054	10540
83.56	1055	10550
83.58	1056	10560
83.6	1056	10560
83.62	1057	10570
83.64	1057	10570
83.66	1058	10580
83.68	1059	10590
83.7	1059	10590
83.72	1060	10600
83.74	1060	10600
83.76	1061	10610
83.78	1061	10610
83.8	1062	10620
83.82	1063	10630
83.84	1063	10630
83.86	1064	10640
83.88	1064	10640
83.9	1065	10650
83.92	1065	10650
83.94	1066	10660
83.96	1066	10660
83.98	1067	10670
84	1068	10680
84.02	1068	10680
84.04	1069	10690
84.06	1069	10690
84.08	1070	10700
84.1	1071	10710
84.12	1071	10710
84.14	1072	10720
84.16	1072	10720
84.18	1073	10730
84.2	1074	10740
84.22	1074	10740
84.24	1075	10750
84.26	1076	10760
84.28	1076	10760
84.3	1077	10770
84.32	1077	10770
84.34	1078	10780
84.36	1079	10790
84.38	1079	10790
84.4	1080	10800
84.42	1081	10810
84.44	1081	10810
84.46	1082	10820
84.48	1082	10820
84.5	1083	10830
84.52	1084	10840
84.54	1084	10840
84.56	1085	10850
84.58	1086	10860
84.6	1086	10860
84.62	1087	10870
84.64	1087	10870
84.66	1088	10880
84.68	1089	10890
84.7	1089	10890
84.72	1090	10900
84.74	1090	10900
84.76	1091	10910
84.78	1092	10920
84.8	1092	10920
84.82	1093	10930
84.84	1093	10930
84.86	1094	10940
84.88	1094	10940
84.9	1095	10950
84.92	1095	10950
84.94	1096	10960
84.96	1097	10970
84.98	1097	10970
85	1098	10980
85.02	1098	10980
85.04	1099	10990
85.06	1099	10990
85.08	1100	11000
85.1	1101	11010
85.12	1101	11010
85.14	1102	11020
85.16	1102	11020
85.18	1103	11030
85.2	1103	11030
85.22	1104	11040
85.24	1104	11040
85.26	1105	11050
85.28	1105	11050
85.3	1106	11060
85.32	1106	11060
85.34	1107	11070
85.36	1108	11080
85.38	1108	11080
85.4	1108	11080
85.42	1109	11090
85.44	1109	11090
85.46	1110	11100
85.48	1110	11100
85.5	1111	11110
85.52	1111	11110
85.54	1112	11120
85.56	1112	11120
85.58	1113	11130
85.6	1113	11130
85.62	1114	11140
85.64	1114	11140
85.66	1115	11150
85.68	1115	11150
85.7	1116	11160
85.72	1116	11160
85.74	1116	11160
85.76	1117	11170
85.78	1117	11170
85.8	1118	11180
85.82	1118	11180
85.84	1119	11190
85.86	1119	11190
85.88	1120	11200
85.9	1120	11200
85.92	1121	11210
85.94	1121	11210
85.96	1122	11220
85.98	1122	11220
86	1123	11230
86.02	1123	11230
86.04	1123	11230
86.06	1124	11240
86.08	1124	11240
86.1	1125	11250
86.12	1125	11250
86.14	1125	11250
86.16	1126	11260
86.18	1126	11260
86.2	1127	11270
86.22	1127	11270
86.24	1128	11280
86.26	1128	11280
86.28	1128	11280
86.3	1129	11290
86.32	1129	11290
86.34	1130	11300
86.36	1130	11300
86.38	1130	11300
86.4	1131	11310
86.42	1131	11310
86.44	1132	11320
86.46	1132	11320
86.48	1132	11320
86.5	1133	11330
86.52	1133	11330
86.54	1134	11340
86.56	1134	11340
86.58	1134	11340
86.6	1135	11350
86.62	1135	11350
86.64	1135	11350
86.66	1136	11360
86.68	1136	11360
86.7	1137	11370
86.72	1137	11370
86.74	1137	11370
86.76	1138	11380
86.78	1138	11380
86.8	1139	11390
86.82	1139	11390
86.84	1139	11390
86.86	1140	11400
86.88	1140	11400
86.9	1140	11400
86.92	1141	11410
86.94	1141	11410
86.96	1141	11410
86.98	1142	11420
87	1142	11420
87.02	1143	11430
87.04	1143	11430
87.06	1144	11440
87.08	1144	11440
87.1	1144	11440
87.12	1145	11450
87.14	1145	11450
87.16	1145	11450
87.18	1146	11460
87.2	1146	11460
87.22	1146	11460
87.24	1147	11470
87.26	1147	11470
87.28	1147	11470
87.3	1148	11480
87.32	1148	11480
87.34	1149	11490
87.36	1149	11490
87.38	1149	11490
87.4	1149	11490
87.42	1150	11500
87.44	1150	11500
87.46	1150	11500
87.48	1151	11510
87.5	1151	11510
87.52	1151	11510
87.54	1152	11520
87.56	1152	11520
87.58	1152	11520
87.6	1153	11530
87.62	1153	11530
87.64	1153	11530
87.66	1154	11540
87.68	1154	11540
87.7	1154	11540
87.72	1155	11550
87.74	1155	11550
87.76	1155	11550
87.78	1156	11560
87.8	1156	11560
87.82	1156	11560
87.84	1157	11570
87.86	1157	11570
87.88	1158	11580
87.9	1158	11580
87.92	1158	11580
87.94	1159	11590
87.96	1159	11590
87.98	1159	11590
88	1159	11590
88.02	1160	11600
88.04	1160	11600
88.06	1161	11610
88.08	1161	11610
88.1	1161	11610
88.12	1162	11620
88.14	1162	11620
88.16	1162	11620
88.18	1163	11630
88.2	1163	11630
88.22	1163	11630
88.24	1163	11630
88.26	1164	11640
88.28	1164	11640
88.3	1164	11640
88.32	1165	11650
88.34	1165	11650
88.36	1165	11650
88.38	1165	11650
88.4	1166	11660
88.42	1166	11660
88.44	1166	11660
88.46	1167	11670
88.48	1167	11670
88.5	1167	11670
88.52	1167	11670
88.54	1168	11680
88.56	1168	11680
88.58	1168	11680
88.6	1169	11690
88.62	1169	11690
88.64	1169	11690
88.66	1169	11690
88.68	1170	11700
88.7	1170	11700
88.72	1170	11700
88.74	1170	11700
88.76	1171	11710
88.78	1171	11710
88.8	1171	11710
88.82	1171	11710
88.84	1172	11720
88.86	1172	11720
88.88	1172	11720
88.9	1173	11730
88.92	1173	11730
88.94	1173	11730
88.96	1173	11730
88.98	1174	11740
89	1174	11740
89.02	1174	11740
89.04	1174	11740
89.06	1175	11750
89.08	1175	11750
89.1	1175	11750
89.12	1175	11750
89.14	1176	11760
89.16	1176	11760
89.18	1176	11760
89.2	1176	11760
89.22	1177	11770
89.24	1177	11770
89.26	1177	11770
89.28	1177	11770
89.3	1178	11780
89.32	1178	11780
89.34	1178	11780
89.36	1178	11780
89.38	1179	11790
89.4	1179	11790
89.42	1179	11790
89.44	1179	11790
89.46	1180	11800
89.48	1180	11800
89.5	1180	11800
89.52	1180	11800
89.54	1180	11800
89.56	1181	11810
89.58	1181	11810
89.6	1181	11810
89.62	1181	11810
89.64	1181	11810
89.66	1182	11820
89.68	1182	11820
89.7	1182	11820
89.72	1182	11820
89.74	1182	11820
89.76	1183	11830
89.78	1183	11830
89.8	1183	11830
89.82	1183	11830
89.84	1183	11830
89.86	1183	11830
89.88	1184	11840
89.9	1184	11840
89.92	1184	11840
89.94	1184	11840
89.96	1184	11840
89.98	1185	11850
90	1185	11850
90.02	1185	11850
90.04	1185	11850
90.06	1185	11850
90.08	1185	11850
90.1	1185	11850
90.12	1185	11850
90.14	1186	11860
90.16	1186	11860
90.18	1186	11860
90.2	1186	11860
90.22	1186	11860
90.24	1186	11860
90.26	1186	11860
90.28	1186	11860
90.3	1187	11870
90.32	1187	11870
90.34	1187	11870
90.36	1187	11870
90.38	1187	11870
90.4	1187	11870
90.42	1187	11870
90.44	1187	11870
90.46	1187	11870
90.48	1187	11870
90.5	1188	11880
90.52	1188	11880
90.54	1188	11880
90.56	1188	11880
90.58	1188	11880
90.6	1188	11880
90.62	1188	11880
90.64	1188	11880
90.66	1188	11880
90.68	1188	11880
90.7	1188	11880
90.72	1188	11880
90.74	1188	11880
90.76	1188	11880
90.78	1189	11890
90.8	1189	11890
90.82	1189	11890
90.84	1189	11890
90.86	1189	11890
90.88	1189	11890
90.9	1189	11890
90.92	1189	11890
90.94	1189	11890
90.96	1189	11890
90.98	1189	11890
91	1189	11890
91.02	1189	11890
91.04	1189	11890
91.06	1189	11890
91.08	1189	11890
91.1	1189	11890
91.12	1189	11890
91.14	1189	11890
91.16	1189	11890
91.18	1189	11890
91.2	1189	11890
91.22	1189	11890
91.24	1189	11890
91.26	1189	11890
91.28	1189	11890
91.3	1189	11890
91.32	1189	11890
91.34	1189	11890
91.36	1189	11890
91.38	1189	11890
91.4	1189	11890
91.42	1189	11890
91.44	1189	11890
91.46	1189	11890
91.48	1189	11890
91.5	1189	11890
91.52	1189	11890
91.54	1189	11890
91.56	1189	11890
91.58	1189	11890
91.6	1189	11890
91.62	1189	11890
91.64	1189	11890
91.66	1189	11890
91.68	1189	11890
91.7	1189	11890
91.72	1189	11890
91.74	1189	11890
91.76	1189	11890
91.78	1189	11890
91.8	1189	11890
91.82	1189	11890
91.84	1189	11890
91.86	1189	11890
91.88	1189	11890
91.9	1189	11890
91.92	1189	11890
91.94	1189	11890
91.96	1189	11890
91.98	1190	11900
92	1190	11900
92.02	1190	11900
92.04	1190	11900
92.06	1190	11900
92.08	1190	11900
92.1	1190	11900
92.12	1190	11900
92.14	1190	11900
92.16	1190	11900
92.18	1190	11900
92.2	1190	11900
92.22	1190	11900
92.24	1190	11900
92.26	1190	11900
92.28	1190	11900
92.3	1190	11900
92.32	1190	11900
92.34	1191	11910
92.36	1191	11910
92.38	1191	11910
92.4	1191	11910
92.42	1191	11910
92.44	1191	11910
92.46	1191	11910
92.48	1191	11910
92.5	1191	11910
92.52	1191	11910
92.54	1191	11910
92.56	1191	11910
92.58	1191	11910
92.6	1192	11920
92.62	1192	11920
92.64	1192	11920
92.66	1192	11920
92.68	1192	11920
92.7	1192	11920
92.72	1192	11920
92.74	1192	11920
92.76	1192	11920
92.78	1192	11920
92.8	1193	11930
92.82	1193	11930
92.84	1193	11930
92.86	1193	11930
92.88	1193	11930
92.9	1193	11930
92.92	1193	11930
92.94	1193	11930
92.96	1194	11940
92.98	1194	11940
93	1194	11940
93.02	1194	11940
93.04	1194	11940
93.06	1194	11940
93.08	1194	11940
93.1	1195	11950
93.12	1195	11950
93.14	1195	11950
93.16	1195	11950
93.18	1195	11950
93.2	1195	11950
93.22	1195	11950
93.24	1195	11950
93.26	1196	11960
93.28	1196	11960
93.3	1196	11960
93.32	1196	11960
93.34	1196	11960
93.36	1196	11960
93.38	1196	11960
93.4	1196	11960
93.42	1196	11960
93.44	1197	11970
93.46	1197	11970
93.48	1197	11970
93.5	1197	11970
93.52	1197	11970
93.54	1197	11970
93.56	1197	11970
93.58	1197	11970
93.6	1197	11970
93.62	1198	11980
93.64	1198	11980
93.66	1198	11980
93.68	1198	11980
93.7	1198	11980
93.72	1198	11980
93.74	1198	11980
93.76	1198	11980
93.78	1198	11980
93.8	1198	11980
93.82	1198	11980
93.84	1198	11980
93.86	1199	11990
93.88	1199	11990
93.9	1199	11990
93.92	1199	11990
93.94	1199	11990
93.96	1199	11990
93.98	1199	11990
94	1199	11990
94.02	1200	12000
94.04	1200	12000
94.06	1200	12000
94.08	1200	12000
94.1	1200	12000
94.12	1200	12000
94.14	1200	12000
94.16	1201	12010
94.18	1201	12010
94.2	1201	12010
94.22	1201	12010
94.24	1201	12010
94.26	1201	12010
94.28	1201	12010
94.3	1201	12010
94.32	1202	12020
94.34	1202	12020
94.36	1202	12020
94.38	1202	12020
94.4	1202	12020
94.42	1203	12030
94.44	1203	12030
94.46	1203	12030
94.48	1203	12030
94.5	1203	12030
94.52	1203	12030
94.54	1204	12040
94.56	1204	12040
94.58	1204	12040
94.6	1204	12040
94.62	1204	12040
94.64	1205	12050
94.66	1205	12050
94.68	1205	12050
94.7	1205	12050
94.72	1205	12050
94.74	1206	12060
94.76	1206	12060
94.78	1206	12060
94.8	1206	12060
94.82	1207	12070
94.84	1207	12070
94.86	1207	12070
94.88	1207	12070
94.9	1208	12080
94.92	1208	12080
94.94	1208	12080
94.96	1208	12080
94.98	1209	12090
95	1209	12090
95.02	1209	12090
95.04	1209	12090
95.06	1209	12090
95.08	1210	12100
95.1	1210	12100
95.12	1210	12100
95.14	1210	12100
95.16	1211	12110
95.18	1211	12110
95.2	1211	12110
95.22	1212	12120
95.24	1212	12120
95.26	1212	12120
95.28	1212	12120
95.3	1213	12130
95.32	1213	12130
95.34	1213	12130
95.36	1214	12140
95.38	1214	12140
95.4	1214	12140
95.42	1214	12140
95.44	1215	12150
95.46	1215	12150
95.48	1215	12150
95.5	1215	12150
95.52	1216	12160
95.54	1216	12160
95.56	1216	12160
95.58	1216	12160
95.6	1217	12170
95.62	1217	12170
95.64	1217	12170
95.66	1218	12180
95.68	1218	12180
95.7	1218	12180
95.72	1219	12190
95.74	1219	12190
95.76	1219	12190
95.78	1220	12200
95.8	1220	12200
95.82	1220	12200
95.84	1221	12210
95.86	1221	12210
95.88	1221	12210
95.9	1222	12220
95.92	1222	12220
95.94	1222	12220
95.96	1223	12230
95.98	1223	12230
96	1224	12240
96.02	1224	12240
96.04	1224	12240
96.06	1225	12250
96.08	1225	12250
96.1	1225	12250
96.12	1226	12260
96.14	1226	12260
96.16	1226	12260
96.18	1227	12270
96.2	1227	12270
96.22	1227	12270
96.24	1228	12280
96.26	1228	12280
96.28	1228	12280
96.3	1229	12290
96.32	1229	12290
96.34	1229	12290
96.36	1230	12300
96.38	1230	12300
96.4	1230	12300
96.42	1231	12310
96.44	1231	12310
96.46	1232	12320
96.48	1232	12320
96.5	1232	12320
96.52	1233	12330
96.54	1233	12330
96.56	1233	12330
96.58	1234	12340
96.6	1234	12340
96.62	1234	12340
96.64	1235	12350
96.66	1235	12350
96.68	1236	12360
96.7	1236	12360
96.72	1236	12360
96.74	1237	12370
96.76	1237	12370
96.78	1237	12370
96.8	1238	12380
96.82	1238	12380
96.84	1239	12390
96.86	1239	12390
96.88	1239	12390
96.9	1240	12400
96.92	1240	12400
96.94	1241	12410
96.96	1241	12410
96.98	1241	12410
97	1242	12420
97.02	1242	12420
97.04	1243	12430
97.06	1243	12430
97.08	1243	12430
97.1	1244	12440
97.12	1244	12440
97.14	1245	12450
97.16	1245	12450
97.18	1245	12450
97.2	1246	12460
97.22	1246	12460
97.24	1247	12470
97.26	1247	12470
97.28	1247	12470
97.3	1248	12480
97.32	1248	12480
97.34	1249	12490
97.36	1249	12490
97.38	1250	12500
97.4	1250	12500
97.42	1250	12500
97.44	1251	12510
97.46	1251	12510
97.48	1252	12520
97.5	1252	12520
97.52	1252	12520
97.54	1253	12530
97.56	1253	12530
97.58	1254	12540
97.6	1254	12540
97.62	1255	12550
97.64	1255	12550
97.66	1255	12550
97.68	1256	12560
97.7	1256	12560
97.72	1257	12570
97.74	1257	12570
97.76	1258	12580
97.78	1258	12580
97.8	1258	12580
97.82	1259	12590
97.84	1259	12590
97.86	1260	12600
97.88	1260	12600
97.9	1261	12610
97.92	1261	12610
97.94	1262	12620
97.96	1262	12620
97.98	1262	12620
98	1263	12630
98.02	1263	12630
98.04	1264	12640
98.06	1264	12640
98.08	1264	12640
98.1	1265	12650
98.12	1265	12650
98.14	1266	12660
98.16	1266	12660
98.18	1267	12670
98.2	1267	12670
98.22	1268	12680
98.24	1268	12680
98.26	1268	12680
98.28	1269	12690
98.3	1269	12690
98.32	1270	12700
98.34	1270	12700
98.36	1270	12700
98.38	1271	12710
98.4	1271	12710
98.42	1272	12720
98.44	1272	12720
98.46	1272	12720
98.48	1273	12730
98.5	1273	12730
98.52	1273	12730
98.54	1274	12740
98.56	1274	12740
98.58	1275	12750
98.6	1275	12750
98.62	1275	12750
98.64	1276	12760
98.66	1276	12760
98.68	1277	12770
98.7	1277	12770
98.72	1277	12770
98.74	1278	12780
98.76	1278	12780
98.78	1278	12780
98.8	1279	12790
98.82	1279	12790
98.84	1280	12800
98.86	1280	12800
98.88	1280	12800
98.9	1281	12810
98.92	1281	12810
98.94	1282	12820
98.96	1282	12820
98.98	1282	12820
99	1283	12830
99.02	1283	12830
99.04	1283	12830
99.06	1284	12840
99.08	1284	12840
99.1	1284	12840
99.12	1285	12850
99.14	1285	12850
99.16	1286	12860
99.18	1286	12860
99.2	1286	12860
99.22	1287	12870
99.24	1287	12870
99.26	1288	12880
99.28	1288	12880
99.3	1288	12880
99.32	1289	12890
99.34	1289	12890
99.36	1289	12890
99.38	1290	12900
99.4	1290	12900
99.42	1291	12910
99.44	1291	12910
99.46	1291	12910
99.48	1292	12920
99.5	1292	12920
99.52	1292	12920
99.54	1293	12930
99.56	1293	12930
99.58	1293	12930
99.6	1294	12940
99.62	1294	12940
99.64	1294	12940
99.66	1295	12950
99.68	1295	12950
99.7	1296	12960
99.72	1296	12960
99.74	1296	12960
99.76	1297	12970
99.78	1297	12970
99.8	1297	12970
99.82	1298	12980
99.84	1298	12980
99.86	1298	12980
99.88	1299	12990
99.9	1299	12990
99.92	1299	12990
99.94	1300	13000
99.96	1300	13000
99.98	1300	13000
100	1301	13010
100.02	1301	13010
100.04	1301	13010
100.06	1302	13020
100.08	1302	13020
100.1	1302	13020
100.12	1303	13030
100.14	1303	13030
100.16	1304	13040
100.18	1304	13040
100.2	1304	13040
100.22	1305	13050
100.24	1305	13050
100.26	1305	13050
100.28	1306	13060
100.3	1306	13060
100.32	1306	13060
100.34	1306	13060
100.36	1307	13070
100.38	1307	13070
100.4	1307	13070
100.42	1308	13080
100.44	1308	13080
100.46	1309	13090
100.48	1309	13090
100.5	1309	13090
100.52	1309	13090
100.54	1310	13100
100.56	1310	13100
100.58	1310	13100
100.6	1311	13110
100.62	1311	13110
100.64	1311	13110
100.66	1311	13110
100.68	1312	13120
100.7	1312	13120
100.72	1312	13120
100.74	1312	13120
100.76	1313	13130
100.78	1313	13130
100.8	1313	13130
100.82	1313	13130
100.84	1314	13140
100.86	1314	13140
100.88	1314	13140
100.9	1315	13150
100.92	1315	13150
100.94	1315	13150
100.96	1315	13150
100.98	1316	13160
101	1316	13160
101.02	1316	13160
101.04	1316	13160
101.06	1317	13170
101.08	1317	13170
101.1	1317	13170
101.12	1317	13170
101.14	1318	13180
101.16	1318	13180
101.18	1318	13180
101.2	1318	13180
101.22	1319	13190
101.24	1319	13190
101.26	1319	13190
101.28	1319	13190
101.3	1320	13200
101.32	1320	13200
101.34	1320	13200
101.36	1320	13200
101.38	1321	13210
101.4	1321	13210
101.42	1321	13210
101.44	1321	13210
101.46	1322	13220
101.48	1322	13220
101.5	1322	13220
101.52	1322	13220
101.54	1323	13230
101.56	1323	13230
101.58	1323	13230
101.6	1323	13230
101.62	1324	13240
101.64	1324	13240
101.66	1324	13240
101.68	1324	13240
101.7	1324	13240
101.72	1325	13250
101.74	1325	13250
101.76	1325	13250
101.78	1325	13250
101.8	1326	13260
101.82	1326	13260
101.84	1326	13260
101.86	1326	13260
101.88	1326	13260
101.9	1327	13270
101.92	1327	13270
101.94	1327	13270
101.96	1327	13270
101.98	1327	13270
102	1328	13280
102.02	1328	13280
102.04	1328	13280
102.06	1328	13280
102.08	1328	13280
102.1	1329	13290
102.12	1329	13290
102.14	1329	13290
102.16	1329	13290
102.18	1329	13290
102.2	1329	13290
102.22	1330	13300
102.24	1330	13300
102.26	1330	13300
102.28	1330	13300
102.3	1330	13300
102.32	1331	13310
102.34	1331	13310
102.36	1331	13310
102.38	1331	13310
102.4	1331	13310
102.42	1332	13320
102.44	1332	13320
102.46	1332	13320
102.48	1332	13320
102.5	1332	13320
102.52	1333	13330
102.54	1333	13330
102.56	1333	13330
102.58	1333	13330
102.6	1333	13330
102.62	1333	13330
102.64	1334	13340
102.66	1334	13340
102.68	1334	13340
102.7	1334	13340
102.72	1334	13340
102.74	1334	13340
102.76	1335	13350
102.78	1335	13350
102.8	1335	13350
102.82	1335	13350
102.84	1335	13350
102.86	1335	13350
102.88	1336	13360
102.9	1336	13360
102.92	1336	13360
102.94	1336	13360
102.96	1336	13360
102.98	1336	13360
103	1336	13360
103.02	1337	13370
103.04	1337	13370
103.06	1337	13370
103.08	1337	13370
103.1	1337	13370
103.12	1337	13370
103.14	1337	13370
103.16	1338	13380
103.18	1338	13380
103.2	1338	13380
103.22	1338	13380
103.24	1338	13380
103.26	1338	13380
103.28	1338	13380
103.3	1339	13390
103.32	1339	13390
103.34	1339	13390
103.36	1339	13390
103.38	1339	13390
103.4	1339	13390
103.42	1339	13390
103.44	1340	13400
103.46	1340	13400
103.48	1340	13400
103.5	1340	13400
103.52	1340	13400
103.54	1340	13400
103.56	1340	13400
103.58	1340	13400
103.6	1341	13410
103.62	1341	13410
103.64	1341	13410
103.66	1341	13410
103.68	1341	13410
103.7	1341	13410
103.72	1341	13410
103.74	1341	13410
103.76	1342	13420
103.78	1342	13420
103.8	1342	13420
103.82	1342	13420
103.84	1342	13420
103.86	1342	13420
103.88	1342	13420
103.9	1342	13420
103.92	1342	13420
103.94	1342	13420
103.96	1343	13430
103.98	1343	13430
104	1343	13430
104.02	1343	13430
104.04	1343	13430
104.06	1344	13440
104.08	1344	13440
104.1	1344	13440
104.12	1344	13440
104.14	1344	13440
104.16	1344	13440
104.18	1345	13450
104.2	1345	13450
104.22	1345	13450
104.24	1345	13450
104.26	1345	13450
104.28	1345	13450
104.3	1345	13450
104.32	1346	13460
104.34	1346	13460
104.36	1346	13460
104.38	1346	13460
104.4	1346	13460
104.42	1347	13470
104.44	1347	13470
104.46	1347	13470
104.48	1347	13470
104.5	1347	13470
104.52	1347	13470
104.54	1348	13480
104.56	1348	13480
104.58	1348	13480
104.6	1348	13480
104.62	1348	13480
104.64	1348	13480
104.66	1349	13490
104.68	1349	13490
104.7	1349	13490
104.72	1349	13490
104.74	1349	13490
104.76	1349	13490
104.78	1350	13500
104.8	1350	13500
104.82	1350	13500
104.84	1350	13500
104.86	1350	13500
104.88	1351	13510
104.9	1351	13510
104.92	1351	13510
104.94	1351	13510
104.96	1351	13510
104.98	1351	13510
105	1351	13510
105.02	1352	13520
105.04	1352	13520
105.06	1352	13520
105.08	1352	13520
105.1	1352	13520
105.12	1353	13530
105.14	1353	13530
105.16	1353	13530
105.18	1353	13530
105.2	1353	13530
105.22	1353	13530
105.24	1354	13540
105.26	1354	13540
105.28	1354	13540
105.3	1354	13540
105.32	1354	13540
105.34	1354	13540
105.36	1354	13540
105.38	1355	13550
105.4	1355	13550
105.42	1355	13550
105.44	1355	13550
105.46	1355	13550
105.48	1356	13560
105.5	1356	13560
105.52	1356	13560
105.54	1356	13560
105.56	1356	13560
105.58	1356	13560
105.6	1357	13570
105.62	1357	13570
105.64	1357	13570
105.66	1357	13570
105.68	1357	13570
105.7	1357	13570
105.72	1358	13580
105.74	1358	13580
105.76	1358	13580
105.78	1358	13580
105.8	1358	13580
105.82	1358	13580
105.84	1359	13590
105.86	1359	13590
105.88	1359	13590
105.9	1359	13590
105.92	1359	13590
105.94	1359	13590
105.96	1360	13600
105.98	1360	13600
106	1360	13600
106.02	1360	13600
106.04	1360	13600
106.06	1360	13600
106.08	1360	13600
106.1	1360	13600
106.12	1360	13600
106.14	1361	13610
106.16	1361	13610
106.18	1361	13610
106.2	1361	13610
106.22	1361	13610
106.24	1362	13620
106.26	1362	13620
106.28	1362	13620
106.3	1362	13620
106.32	1362	13620
106.34	1362	13620
106.36	1362	13620
106.38	1362	13620
106.4	1362	13620
106.42	1363	13630
106.44	1363	13630
106.46	1363	13630
106.48	1363	13630
106.5	1363	13630
106.52	1363	13630
106.54	1363	13630
106.56	1363	13630
106.58	1364	13640
106.6	1364	13640
106.62	1364	13640
106.64	1364	13640
106.66	1364	13640
106.68	1364	13640
106.7	1364	13640
106.72	1364	13640
106.74	1364	13640
106.76	1364	13640
106.78	1364	13640
106.8	1364	13640
106.82	1365	13650
106.84	1365	13650
106.86	1365	13650
106.88	1365	13650
106.9	1365	13650
106.92	1365	13650
106.94	1365	13650
106.96	1365	13650
106.98	1365	13650
107	1365	13650
107.02	1365	13650
107.04	1365	13650
107.06	1366	13660
107.08	1366	13660
107.1	1366	13660
107.12	1366	13660
107.14	1366	13660
107.16	1366	13660
107.18	1366	13660
107.2	1366	13660
107.22	1366	13660
107.24	1366	13660
107.26	1366	13660
107.28	1366	13660
107.3	1366	13660
107.32	1366	13660
107.34	1367	13670
107.36	1367	13670
107.38	1367	13670
107.4	1367	13670
107.42	1367	13670
107.44	1367	13670
107.46	1367	13670
107.48	1367	13670
107.5	1367	13670
107.52	1367	13670
107.54	1367	13670
107.56	1367	13670
107.58	1367	13670
107.6	1367	13670
107.62	1368	13680
107.64	1368	13680
107.66	1368	13680
107.68	1368	13680
107.7	1368	13680
107.72	1368	13680
107.74	1368	13680
107.76	1368	13680
107.78	1368	13680
107.8	1368	13680
107.82	1368	13680
107.84	1368	13680
107.86	1368	13680
107.88	1368	13680
107.9	1368	13680
107.92	1368	13680
107.94	1369	13690
107.96	1369	13690
107.98	1369	13690
108	1369	13690
108.02	1369	13690
108.04	1369	13690
108.06	1369	13690
108.08	1369	13690
108.1	1369	13690
108.12	1369	13690
108.14	1369	13690
108.16	1369	13690
108.18	1369	13690
108.2	1369	13690
108.22	1369	13690
108.24	1369	13690
108.26	1369	13690
108.28	1369	13690
108.3	1369	13690
108.32	1369	13690
108.34	1369	13690
108.36	1370	13700
108.38	1370	13700
108.4	1370	13700
108.42	1370	13700
108.44	1370	13700
108.46	1370	13700
108.48	1370	13700
108.5	1370	13700
108.52	1370	13700
108.54	1370	13700
108.56	1370	13700
108.58	1370	13700
108.6	1370	13700
108.62	1370	13700
108.64	1370	13700
108.66	1370	13700
108.68	1370	13700
108.7	1370	13700
108.72	1370	13700
108.74	1370	13700
108.76	1370	13700
108.78	1370	13700
108.8	1370	13700
108.82	1370	13700
108.84	1371	13710
108.86	1371	13710
108.88	1371	13710
108.9	1371	13710
108.92	1371	13710
108.94	1371	13710
108.96	1371	13710
108.98	1371	13710
109	1371	13710
109.02	1371	13710
109.04	1371	13710
109.06	1371	13710
109.08	1371	13710
109.1	1371	13710
109.12	1371	13710
109.14	1371	13710
109.16	1371	13710
109.18	1371	13710
109.2	1371	13710
109.22	1371	13710
109.24	1371	13710
109.26	1371	13710
109.28	1371	13710
109.3	1371	13710
109.32	1371	13710
109.34	1371	13710
109.36	1371	13710
109.38	1371	13710
109.4	1371	13710
109.42	1371	13710
109.44	1372	13720
109.46	1372	13720
109.48	1372	13720
109.5	1372	13720
109.52	1372	13720
109.54	1372	13720
109.56	1372	13720
109.58	1372	13720
109.6	1372	13720
109.62	1372	13720
109.64	1372	13720
109.66	1372	13720
109.68	1372	13720
109.7	1372	13720
109.72	1372	13720
109.74	1372	13720
109.76	1372	13720
109.78	1372	13720
109.8	1372	13720
109.82	1372	13720
109.84	1372	13720
109.86	1372	13720
109.88	1372	13720
109.9	1372	13720
109.92	1372	13720
109.94	1372	13720
109.96	1372	13720
109.98	1372	13720
110	1372	13720
110.02	1372	13720
110.04	1372	13720
110.06	1372	13720
110.08	1372	13720
110.1	1372	13720
110.12	1372	13720
110.14	1372	13720
110.16	1372	13720
110.18	1372	13720
110.2	1372	13720
110.22	1372	13720
110.24	1372	13720
110.26	1372	13720
110.28	1372	13720
110.3	1372	13720
110.32	1373	13730
110.34	1373	13730
110.36	1373	13730
110.38	1373	13730
110.4	1373	13730
110.42	1373	13730
110.44	1373	13730
110.46	1373	13730
110.48	1373	13730
110.5	1373	13730
110.52	1373	13730
110.54	1373	13730
110.56	1373	13730
110.58	1373	13730
110.6	1373	13730
110.62	1373	13730
110.64	1373	13730
110.66	1373	13730
110.68	1373	13730
110.7	1373	13730
110.72	1373	13730
110.74	1373	13730
110.76	1373	13730
110.78	1373	13730
110.8	1373	13730
110.82	1374	13740
110.84	1374	13740
110.86	1374	13740
110.88	1374	13740
110.9	1374	13740
110.92	1374	13740
110.94	1374	13740
110.96	1374	13740
110.98	1374	13740
111	1374	13740
111.02	1374	13740
111.04	1374	13740
111.06	1374	13740
111.08	1374	13740
111.1	1374	13740
111.12	1374	13740
111.14	1374	13740
111.16	1374	13740
111.18	1374	13740
111.2	1374	13740
111.22	1374	13740
111.24	1374	13740
111.26	1375	13750
111.28	1375	13750
111.3	1375	13750
111.32	1375	13750
111.34	1375	13750
111.36	1375	13750
111.38	1375	13750
111.4	1375	13750
111.42	1375	13750
111.44	1375	13750
111.46	1375	13750
111.48	1375	13750
111.5	1375	13750
111.52	1375	13750
111.54	1375	13750
111.56	1375	13750
111.58	1375	13750
111.6	1375	13750
111.62	1375	13750
111.64	1376	13760
111.66	1376	13760
111.68	1376	13760
111.7	1376	13760
111.72	1376	13760
111.74	1376	13760
111.76	1376	13760
111.78	1376	13760
111.8	1376	13760
111.82	1376	13760
111.84	1376	13760
111.86	1376	13760
111.88	1376	13760
111.9	1376	13760
111.92	1376	13760
111.94	1376	13760
111.96	1376	13760
111.98	1377	13770
112	1377	13770
112.02	1377	13770
112.04	1377	13770
112.06	1377	13770
112.08	1377	13770
112.1	1377	13770
112.12	1377	13770
112.14	1377	13770
112.16	1377	13770
112.18	1377	13770
112.2	1377	13770
112.22	1377	13770
112.24	1378	13780
112.26	1378	13780
112.28	1378	13780
112.3	1378	13780
112.32	1378	13780
112.34	1378	13780
112.36	1378	13780
112.38	1378	13780
112.4	1378	13780
112.42	1378	13780
112.44	1378	13780
112.46	1378	13780
112.48	1379	13790
112.5	1379	13790
112.52	1379	13790
112.54	1379	13790
112.56	1379	13790
112.58	1379	13790
112.6	1379	13790
112.62	1379	13790
112.64	1379	13790
112.66	1379	13790
112.68	1379	13790
112.7	1379	13790
112.72	1379	13790
112.74	1379	13790
112.76	1380	13800
112.78	1380	13800
112.8	1380	13800
112.82	1380	13800
112.84	1380	13800
112.86	1380	13800
112.88	1380	13800
112.9	1380	13800
112.92	1380	13800
112.94	1380	13800
112.96	1380	13800
112.98	1381	13810
113	1381	13810
113.02	1381	13810
113.04	1381	13810
113.06	1381	13810
113.08	1381	13810
113.1	1381	13810
113.12	1381	13810
113.14	1381	13810
113.16	1381	13810
113.18	1381	13810
113.2	1382	13820
113.22	1382	13820
113.24	1382	13820
113.26	1382	13820
113.28	1382	13820
113.3	1382	13820
113.32	1382	13820
113.34	1382	13820
113.36	1382	13820
113.38	1382	13820
113.4	1383	13830
113.42	1383	13830
113.44	1383	13830
113.46	1383	13830
113.48	1383	13830
113.5	1383	13830
113.52	1383	13830
113.54	1383	13830
113.56	1383	13830
113.58	1383	13830
113.6	1384	13840
113.62	1384	13840
113.64	1384	13840
113.66	1384	13840
113.68	1384	13840
113.7	1384	13840
113.72	1384	13840
113.74	1384	13840
113.76	1384	13840
113.78	1385	13850
113.8	1385	13850
113.82	1385	13850
113.84	1385	13850
113.86	1385	13850
113.88	1385	13850
113.9	1385	13850
113.92	1386	13860
113.94	1386	13860
113.96	1386	13860
113.98	1386	13860
114	1386	13860
114.02	1386	13860
114.04	1386	13860
114.06	1387	13870
114.08	1387	13870
114.1	1387	13870
114.12	1387	13870
114.14	1387	13870
114.16	1387	13870
114.18	1387	13870
114.2	1388	13880
114.22	1388	13880
114.24	1388	13880
114.26	1388	13880
114.28	1388	13880
114.3	1388	13880
114.32	1388	13880
114.34	1388	13880
114.36	1389	13890
114.38	1389	13890
114.4	1389	13890
114.42	1389	13890
114.44	1389	13890
114.46	1389	13890
114.48	1389	13890
114.5	1390	13900
114.52	1390	13900
114.54	1390	13900
114.56	1390	13900
114.58	1390	13900
114.6	1390	13900
114.62	1390	13900
114.64	1391	13910
114.66	1391	13910
114.68	1391	13910
114.7	1391	13910
114.72	1391	13910
114.74	1391	13910
114.76	1391	13910
114.78	1392	13920
114.8	1392	13920
114.82	1392	13920
114.84	1392	13920
114.86	1392	13920
114.88	1392	13920
114.9	1392	13920
114.92	1393	13930
114.94	1393	13930
114.96	1393	13930
114.98	1393	13930
115	1393	13930
115.02	1393	13930
115.04	1393	13930
115.06	1393	13930
115.08	1394	13940
115.1	1394	13940
115.12	1394	13940
115.14	1394	13940
115.16	1394	13940
115.18	1394	13940
115.2	1395	13950
115.22	1395	13950
115.24	1395	13950
115.26	1395	13950
115.28	1395	13950
115.3	1395	13950
115.32	1395	13950
115.34	1396	13960
115.36	1396	13960
115.38	1396	13960
115.4	1396	13960
115.42	1396	13960
115.44	1396	13960
115.46	1396	13960
115.48	1397	13970
115.5	1397	13970
115.52	1397	13970
115.54	1397	13970
115.56	1397	13970
115.58	1397	13970
115.6	1397	13970
115.62	1398	13980
115.64	1398	13980
115.66	1398	13980
115.68	1398	13980
115.7	1398	13980
115.72	1398	13980
115.74	1399	13990
115.76	1399	13990
115.78	1399	13990
115.8	1399	13990
115.82	1399	13990
115.84	1399	13990
115.86	1399	13990
115.88	1400	14000
115.9	1400	14000
115.92	1400	14000
115.94	1400	14000
115.96	1400	14000
115.98	1400	14000
116	1401	14010
116.02	1401	14010
116.04	1401	14010
116.06	1401	14010
116.08	1401	14010
116.1	1402	14020
116.12	1402	14020
116.14	1402	14020
116.16	1402	14020
116.18	1402	14020
116.2	1402	14020
116.22	1402	14020
116.24	1402	14020
116.26	1402	14020
116.28	1403	14030
116.3	1403	14030
116.32	1403	14030
116.34	1403	14030
116.36	1403	14030
116.38	1403	14030
116.4	1404	14040
116.42	1404	14040
116.44	1404	14040
116.46	1404	14040
116.48	1404	14040
116.5	1404	14040
116.52	1404	14040
116.54	1404	14040
116.56	1405	14050
116.58	1405	14050
116.6	1405	14050
116.62	1405	14050
116.64	1405	14050
116.66	1405	14050
116.68	1405	14050
116.7	1406	14060
116.72	1406	14060
116.74	1406	14060
116.76	1406	14060
116.78	1406	14060
116.8	1406	14060
116.82	1407	14070
116.84	1407	14070
116.86	1407	14070
116.88	1407	14070
116.9	1407	14070
116.92	1407	14070
116.94	1407	14070
116.96	1407	14070
116.98	1408	14080
117	1408	14080
117.02	1408	14080
117.04	1408	14080
117.06	1408	14080
117.08	1408	14080
117.1	1408	14080
117.12	1409	14090
117.14	1409	14090
117.16	1409	14090
117.18	1409	14090
117.2	1409	14090
117.22	1409	14090
117.24	1410	14100
117.26	1410	14100
117.28	1410	14100
117.3	1410	14100
117.32	1410	14100
117.34	1410	14100
117.36	1411	14110
117.38	1411	14110
117.4	1411	14110
117.42	1411	14110
117.44	1411	14110
117.46	1411	14110
117.48	1412	14120
117.5	1412	14120
117.52	1412	14120
117.54	1412	14120
117.56	1412	14120
117.58	1412	14120
117.6	1412	14120
117.62	1413	14130
117.64	1413	14130
117.66	1413	14130
117.68	1413	14130
117.7	1413	14130
117.72	1414	14140
117.74	1414	14140
117.76	1414	14140
117.78	1414	14140
117.8	1414	14140
117.82	1414	14140
117.84	1415	14150
117.86	1415	14150
117.88	1415	14150
117.9	1415	14150
117.92	1415	14150
117.94	1415	14150
117.96	1416	14160
117.98	1416	14160
118	1416	14160
118.02	1416	14160
118.04	1416	14160
118.06	1417	14170
118.08	1417	14170
118.1	1417	14170
118.12	1417	14170
118.14	1417	14170
118.16	1417	14170
118.18	1418	14180
118.2	1418	14180
118.22	1418	14180
118.24	1418	14180
118.26	1418	14180
118.28	1419	14190
118.3	1419	14190
118.32	1419	14190
118.34	1419	14190
118.36	1419	14190
118.38	1419	14190
118.4	1419	14190
118.42	1420	14200
118.44	1420	14200
118.46	1420	14200
118.48	1420	14200
118.5	1420	14200
118.52	1420	14200
118.54	1420	14200
118.56	1421	14210
118.58	1421	14210
118.6	1421	14210
118.62	1421	14210
118.64	1421	14210
118.66	1422	14220
118.68	1422	14220
118.7	1422	14220
118.72	1422	14220
118.74	1422	14220
118.76	1423	14230
118.78	1423	14230
118.8	1423	14230
118.82	1423	14230
118.84	1423	14230
118.86	1423	14230
118.88	1424	14240
118.9	1424	14240
118.92	1424	14240
118.94	1424	14240
118.96	1424	14240
118.98	1425	14250
119	1425	14250
119.02	1425	14250
119.04	1425	14250
119.06	1425	14250
119.08	1425	14250
119.1	1426	14260
119.12	1426	14260
119.14	1426	14260
119.16	1426	14260
119.18	1426	14260
119.2	1427	14270
119.22	1427	14270
119.24	1427	14270
119.26	1427	14270
119.28	1427	14270
119.3	1427	14270
119.32	1428	14280
119.34	1428	14280
119.36	1428	14280
119.38	1428	14280
119.4	1428	14280
119.42	1428	14280
119.44	1429	14290
119.46	1429	14290
119.48	1429	14290
119.5	1429	14290
119.52	1429	14290
119.54	1429	14290
119.56	1430	14300
119.58	1430	14300
119.6	1430	14300
119.62	1430	14300
119.64	1430	14300
119.66	1431	14310
119.68	1431	14310
119.7	1431	14310
119.72	1431	14310
119.74	1431	14310
119.76	1431	14310
119.78	1432	14320
119.8	1432	14320
119.82	1432	14320
119.84	1432	14320
119.86	1432	14320
119.88	1432	14320
119.9	1433	14330
119.92	1433	14330
119.94	1433	14330
119.96	1433	14330
119.98	1433	14330
120	1433	14330
120.02	1434	14340
120.04	1434	14340
120.06	1434	14340
120.08	1434	14340
120.1	1434	14340
120.12	1434	14340
120.14	1435	14350
120.16	1435	14350
120.18	1435	14350
120.2	1435	14350
120.22	1435	14350
120.24	1435	14350
120.26	1436	14360
120.28	1436	14360
120.3	1436	14360
120.32	1436	14360
120.34	1436	14360
120.36	1436	14360
120.38	1437	14370
120.4	1437	14370
120.42	1437	14370
120.44	1437	14370
120.46	1438	14380
120.48	1438	14380
120.5	1438	14380
120.52	1438	14380
120.54	1438	14380
120.56	1438	14380
120.58	1438	14380
120.6	1438	14380
120.62	1439	14390
120.64	1439	14390
120.66	1439	14390
120.68	1439	14390
120.7	1439	14390
120.72	1440	14400
120.74	1440	14400
120.76	1440	14400
120.78	1440	14400
120.8	1440	14400
120.82	1440	14400
120.84	1441	14410
120.86	1441	14410
120.88	1441	14410
120.9	1441	14410
120.92	1441	14410
120.94	1441	14410
120.96	1442	14420
120.98	1442	14420
121	1442	14420
121.02	1442	14420
121.04	1442	14420
121.06	1443	14430
121.08	1443	14430
121.1	1443	14430
121.12	1443	14430
121.14	1443	14430
121.16	1443	14430
121.18	1443	14430
121.2	1444	14440
121.22	1444	14440
121.24	1444	14440
121.26	1444	14440
121.28	1444	14440
121.3	1444	14440
121.32	1445	14450
121.34	1445	14450
121.36	1445	14450
121.38	1445	14450
121.4	1445	14450
121.42	1445	14450
121.44	1445	14450
121.46	1446	14460
121.48	1446	14460
121.5	1446	14460
121.52	1446	14460
121.54	1446	14460
121.56	1446	14460
121.58	1446	14460
121.6	1447	14470
121.62	1447	14470
121.64	1447	14470
121.66	1447	14470
121.68	1447	14470
121.7	1447	14470
121.72	1447	14470
121.74	1448	14480
121.76	1448	14480
121.78	1448	14480
121.8	1448	14480
121.82	1448	14480
121.84	1448	14480
121.86	1448	14480
121.88	1449	14490
121.9	1449	14490
121.92	1449	14490
121.94	1449	14490
121.96	1449	14490
121.98	1449	14490
122	1450	14500
122.02	1450	14500
122.04	1450	14500
122.06	1450	14500
122.08	1450	14500
122.11	1450	14500
122.12	1450	14500
122.14	1450	14500
122.16	1451	14510
122.18	1451	14510
122.2	1451	14510
122.22	1451	14510
122.24	1451	14510
122.26	1451	14510
122.28	1451	14510
122.3	1452	14520
122.32	1452	14520
122.34	1452	14520
122.36	1452	14520
122.38	1452	14520
122.4	1452	14520
122.42	1452	14520
122.44	1453	14530
122.46	1453	14530
122.48	1453	14530
122.5	1453	14530
122.52	1453	14530
122.54	1453	14530
122.56	1453	14530
122.58	1453	14530
122.6	1454	14540
122.62	1454	14540
122.64	1454	14540
122.66	1454	14540
122.68	1454	14540
122.7	1454	14540
122.72	1454	14540
122.74	1455	14550
122.76	1455	14550
122.78	1455	14550
122.8	1455	14550
122.82	1455	14550
122.84	1455	14550
122.86	1455	14550
122.88	1455	14550
122.9	1456	14560
122.92	1456	14560
122.94	1456	14560
122.96	1456	14560
122.98	1456	14560
123	1456	14560
123.02	1456	14560
123.04	1456	14560
123.06	1456	14560
123.08	1457	14570
123.1	1457	14570
123.12	1457	14570
123.14	1457	14570
123.16	1457	14570
123.18	1457	14570
123.2	1457	14570
123.22	1457	14570
123.24	1458	14580
123.26	1458	14580
123.28	1458	14580
123.3	1458	14580
123.32	1458	14580
123.34	1458	14580
123.36	1458	14580
123.38	1458	14580
123.4	1459	14590
123.42	1459	14590
123.44	1459	14590
123.46	1459	14590
123.48	1459	14590
123.5	1459	14590
123.52	1459	14590
123.54	1459	14590
123.56	1459	14590
123.58	1459	14590

