#INFO
#COMMENT: 

#DATA:
-0.4987523	0.0014241	
-0.4968237	0.0014447	
-0.49502494	0.0014241	
-0.49351225	0.0014447	
-0.49237219	0.0014447	
-0.49126278	0.0014447	
-0.49023884	0.0014447	
-0.48878737	0.0014344	
-0.48744991	0.0014447	
-0.48629824	0.0014447	
-0.48505051	0.0014653	
-0.48337315	0.0014447	
-0.48156703	0.0014447	
-0.48009023	0.0014653	
-0.47918557	0.0014653	
-0.4782693	0.0014653	
-0.47702685	0.0014653	
-0.47561128	0.001455	
-0.47425271	0.0014757	
-0.4733111	0.001455	
-0.47245289	0.0014447	
-0.47177941	0.001486	
-0.47073228	0.001455	
-0.46999863	0.001486	
-0.46948982	0.001486	
-0.46902113	0.0014653	
-0.46825793	0.0014757	
-0.46750422	0.001455	
-0.46648872	0.001486	
-0.46561362	0.001455	
-0.46449573	0.001486	
-0.46342007	0.0014653	
-0.46244468	0.0014757	
-0.46182187	0.0014653	
-0.46084754	0.001486	
-0.46006745	0.001455	
-0.45990488	0.001486	
-0.45944675	0.001486	
-0.4589295	0.001486	
-0.45820641	0.001455	
-0.4577166	0.001486	
-0.45724158	0.0014653	
-0.45637704	0.0014963	
-0.45502163	0.0015066	
-0.45365039	0.0014963	
-0.45238894	0.0015376	
-0.45084458	0.0015685	
-0.44963277	0.0015582	
-0.44877245	0.0015582	
-0.44794907	0.0015376	
-0.44728932	0.0015273	
-0.44682063	0.0015582	
-0.44659473	0.0015582	
-0.44653139	0.0015479	
-0.44650606	0.0015582	
-0.44647228	0.0015376	
-0.44638994	0.0015995	
-0.44598247	0.0016201	
-0.44553384	0.0016821	
-0.44532061	0.0017852	
-0.44524671	0.0018472	
-0.44512426	0.0020226	
-0.4449237	0.0025076	
-0.4447738	0.0031371	
-0.44457218	0.0046334	
-0.44442123	0.005686	
-0.44428294	0.0065528	
-0.44416049	0.0077808	
-0.44390503	0.010567	
-0.44366858	0.0133429	
-0.44349123	0.0155409	
-0.443373	0.0169753	
-0.44325266	0.0184716	
-0.44306266	0.020876	
-0.44288531	0.0220318	
-0.4427143	0.023332	
-0.44257707	0.0246839	
-0.44224456	0.0262627	
-0.44183181	0.0271089	
-0.44145918	0.0275011	
-0.44113617	0.0278622	
-0.44088282	0.0281305	
-0.4407762	0.0282028	
-0.44056297	0.0283885	
-0.44041518	0.0285536	
-0.4402484	0.0287084	
-0.44005839	0.0287703	
-0.43986416	0.0287807	
-0.43956016	0.0286981	
-0.43905136	0.0284298	
-0.4386745	0.0284504	
-0.43838949	0.028791	
-0.43816992	0.0293792	
-0.43790391	0.0301015	
-0.43759356	0.031216	
-0.4373856	0.0318145	
-0.43712804	0.0323718	
-0.43685885	0.0327742	
-0.43647778	0.032475	
-0.43615687	0.0313399	
-0.43583808	0.0301531	
-0.4355594	0.0285536	
-0.43522899	0.0261905	
-0.43497353	0.0237345	
-0.43476875	0.0214333	
-0.43444362	0.0181001	
-0.43409104	0.0146844	
-0.43376381	0.0092977	
-0.43321594	0.0052216	
-0.4329246	0.0038078	
-0.43279898	0.0033435	
-0.43254669	0.0026933	
-0.43220467	0.0022083	
-0.43184471	0.0018988	
-0.43155758	0.0017852	
-0.43137496	0.0016924	
-0.43124301	0.0016821	
-0.43119656	0.0016821	
-0.431167	0.0016511	
-0.43096011	0.0015892	
-0.43068354	0.0015376	
-0.43036474	0.0015273	
-0.42973876	0.0015066	
-0.42888269	0.0014963	
-0.42793687	0.0015169	
-0.42718316	0.0015066	
-0.42643685	0.0014653	
-0.42535168	0.001486	
-0.42405222	0.001486	
-0.42215318	0.0014653	
-0.41984034	0.0014447	
-0.41694163	0.0014447	
-0.41428994	0.001455	
-0.40924307	0.0014447	
-0.40485175	0.0014344	
-0.40087949	0.0014447	
-0.39635517	0.0014447	
-0.39150465	0.0014344	
-0.38689902	0.0014241	
-0.38243168	0.0014138	
-0.37709557	0.0014447	
-0.37225984	0.0014344	
-0.36740931	0.0014344	
-0.36333045	0.0014034	
-0.35727864	0.0014034	
-0.35221382	0.0014034	
-0.34888548	0.0014034	
-0.34297092	0.0014034	
-0.33921928	0.0013931	
-0.3354592	0.0014034	
-0.33050313	0.0014138	
-0.32595662	0.0013828	
-0.3223591	0.0014138	
-0.3191796	0.0014034	
-0.3155673	0.0014034	
-0.31193812	0.0014034	
-0.30781702	0.0014034	
-0.30384371	0.0013725	
-0.30190879	0.0014034	
-0.29981868	0.0014138	
-0.29660646	0.0014034	
-0.29411522	0.0014034	
-0.29092728	0.0014241	
-0.28792513	0.0014034	
-0.28584663	0.0014034	
-0.28399614	0.0014034	
-0.28309677	0.0014034	
-0.28238846	0.0014034	
-0.28210133	0.0013931	
-0.28182688	0.0014034	
-0.28139408	0.0013725	
-0.28108373	0.0014034	
-0.28062876	0.0013931	
-0.2800524	0.0014034	
-0.27949292	0.0013828	
-0.27790317	0.0014034	
-0.27652877	0.0014034	
-0.27550799	0.0013725	
-0.27433838	0.0014138	
-0.27271591	0.0013931	
-0.27176691	0.0014034	
-0.27104593	0.0013931	
-0.27031439	0.0014344	
-0.26954485	0.0014034	
-0.26845757	0.0014034	
-0.26748958	0.0013828	
-0.26651736	0.0014034	
-0.26570877	0.0014034	
-0.26440931	0.0014241	
-0.26360599	0.0014138	
-0.26271083	0.0013931	
-0.26212602	0.0014241	
-0.26166895	0.0014138	
-0.26093531	0.0014344	
-0.25993987	0.0014241	
-0.25914288	0.0014447	
-0.25856018	0.0014447	
-0.25787087	0.0014447	
-0.25718472	0.001486	
-0.25621251	0.0014653	
-0.25557492	0.0014963	
-0.25480221	0.001486	
-0.25432191	0.0014963	
-0.25383422	0.0015273	
-0.25343097	0.0015479	
-0.25278705	0.0015789	
-0.25203862	0.0015995	
-0.25158049	0.0016305	
-0.25146226	0.0016201	
-0.2509524	0.0016201	
-0.25047527	0.0016924	
-0.25015647	0.0016924	
-0.24952099	0.0017749	
-0.24879685	0.0018575	
-0.24827854	0.00194	
-0.24794075	0.0020226	
-0.247414	0.0021567	
-0.24660962	0.0023734	
-0.24614726	0.0024663	
-0.24583692	0.0025489	
-0.24549279	0.0026521	
-0.24485625	0.0028894	
-0.24423978	0.0030648	
-0.24381648	0.0032506	
-0.24344701	0.0033951	
-0.24306066	0.0035189	
-0.24289176	0.0035602	
-0.24276298	0.0036427	
-0.24249063	0.0037459	
-0.24221617	0.0038491	
-0.24194066	0.0039317	
-0.24173798	0.0039729	
-0.24167042	0.0040039	
-0.24154586	0.0040555	
-0.24129462	0.0041381	
-0.24116478	0.0042	
-0.24109406	0.0042413	
-0.24104761	0.0042413	
-0.24083016	0.004427	
-0.24050715	0.0045508	
-0.2404512	0.0045715	
-0.24040264	0.0046127	
-0.24025697	0.0046334	
-0.2402063	0.0046127	
-0.24018941	0.0046334	
-0.24016619	0.0046127	
-0.24015352	0.0046127	
-0.24014719	0.0046127	
-0.24014508	0.0046127	
-0.24014085	0.0046334	
-0.24006907	0.0047159	
-0.23991495	0.0048191	
-0.23958138	0.0049017	
-0.23932803	0.0049636	
-0.23927948	0.0049842	
-0.23900924	0.0051494	
-0.23853105	0.0052629	
-0.23822281	0.0053661	
-0.23768234	0.0055621	
-0.23710386	0.0056756	
-0.23699197	0.0057066	
-0.23677768	0.0057788	
-0.23648211	0.0058511	
-0.23611898	0.0059439	
-0.23565873	0.0060678	
-0.23495886	0.0062845	
-0.23463162	0.0063774	
-0.23433394	0.0064909	
-0.23412704	0.0065631	
-0.23371113	0.0066766	
-0.23341028	0.0066973	
-0.23326461	0.0067592	
-0.23296059	0.0067901	
-0.23245601	0.0068727	
-0.23193243	0.0069449	
-0.23172975	0.0070068	
-0.23155558	0.0070275	
-0.23129801	0.0070481	
-0.2310341	0.0070894	
-0.23062453	0.00711	
-0.23021917	0.0071307	
-0.22986344	0.0071203	
-0.22961221	0.0071203	
-0.22898729	0.0071203	
-0.22828003	0.0070378	
-0.22793484	0.0070584	
-0.22784195	0.0070584	
-0.22763083	0.0069759	
-0.22733526	0.0069552	
-0.22683912	0.0068933	
-0.22634193	0.006852	
-0.22604847	0.0068004	
-0.22553333	0.0067385	
-0.22495486	0.0066147	
-0.22453367	0.0065321	
-0.22412409	0.0064702	
-0.22332499	0.0062742	
-0.22276341	0.0061194	
-0.22209521	0.0060368	
-0.22149879	0.0059749	
-0.22103749	0.005913	
-0.22035767	0.0058407	
-0.21971375	0.0058201	
-0.21921445	0.0058098	
-0.21880698	0.0058304	
-0.2183404	0.0058098	
-0.21774082	0.0058717	
-0.21736608	0.0059233	
-0.21700717	0.0059646	
-0.21657015	0.0060368	
-0.21614579	0.0060987	
-0.21585233	0.0060884	
-0.21556626	0.0061297	
-0.21524113	0.0062226	
-0.21482733	0.0062535	
-0.21461832	0.0063464	
-0.21440298	0.0064186	
-0.21409157	0.0064909	
-0.213815	0.0065012	
-0.21341176	0.0066147	
-0.21309297	0.0066663	
-0.21252082	0.006852	
-0.2118674	0.0069346	
-0.21156444	0.0069965	
-0.21148738	0.0070688	
-0.21117703	0.0070997	
-0.2106619	0.0072132	
-0.21019215	0.0072751	
-0.20978679	0.0072855	
-0.20948489	0.0073267	
-0.20906053	0.0073783	
-0.20839868	0.007368	
-0.20793421	0.0074093	
-0.20737685	0.0074196	
-0.2069926	0.0074299	
-0.20654819	0.007368	
-0.20615234	0.007368	
-0.20593805	0.0073783	
-0.20577443	0.007368	
-0.20546514	0.0073267	
-0.20518962	0.0072855	
-0.20480749	0.0072339	
-0.20441058	0.0071823	
-0.20420157	0.0071513	
-0.20387855	0.0070584	
-0.20350698	0.0070378	
-0.20344259	0.0070275	
-0.20305412	0.0069036	
-0.20261077	0.0068211	
-0.20224764	0.0067385	
-0.20210196	0.0066663	
-0.20175467	0.0065941	
-0.20134298	0.0065218	
-0.20095874	0.0064186	
-0.20047843	0.0063258	
-0.2001607	0.0061813	
-0.1996445	0.0059439	
-0.19893091	0.0056963	
-0.1986744	0.0056137	
-0.19830069	0.0054486	
-0.19755965	0.0051906	
-0.19701707	0.0050771	
-0.19678061	0.0050462	
-0.1967405	0.0050462	
-0.19661594	0.0049842	
-0.19643121	0.0049017	
-0.19595829	0.0047675	
-0.19581051	0.004685	
-0.19543471	0.0045508	
-0.19531648	0.0045096	
-0.19512858	0.0044476	
-0.19474856	0.0043032	
-0.19442027	0.0041587	
-0.19396636	0.0040142	
-0.19348922	0.0038078	
-0.19302264	0.0036221	
-0.19237555	0.0033744	
-0.1919322	0.0032093	
-0.19124077	0.0030029	
-0.19075308	0.0028894	
-0.19049234	0.0028275	
-0.19039839	0.0027553	
-0.19000993	0.0027037	
-0.18968269	0.0025902	
-0.1895254	0.0025798	
-0.18940929	0.0025282	
-0.18913905	0.0024766	
-0.18884348	0.0023838	
-0.18848457	0.0023012	
-0.18785755	0.0022083	
-0.18753981	0.0021155	
-0.1871809	0.0020742	
-0.18673544	0.002002	
-0.18633008	0.0019607	
-0.18594478	0.0018678	
-0.1855996	0.0018162	
-0.18537898	0.0017749	
-0.18515413	0.0017337	
-0.18486806	0.0017027	
-0.18465694	0.0016924	
-0.18434237	0.0016305	
-0.1839254	0.0016098	
-0.18347149	0.0015789	
-0.18282335	0.0015685	
-0.18236416	0.0015273	
-0.18224382	0.0015169	
-0.18201158	0.0015273	
-0.18180257	0.0015066	
-0.18154711	0.0014963	
-0.1813381	0.001486	
-0.18026666	0.0014447	
-0.17855129	0.0014241	
-0.17774903	0.0014241	
-0.17612232	0.0013828	
-0.17428873	0.0014034	
-0.17315606	0.0014241	
-0.17210889	0.0013931	
-0.17148186	0.0014034	
-0.17018346	0.0013725	
-0.16908563	0.0014034	
-0.16849026	0.0014034	
-0.16754232	0.0014034	
-0.16664401	0.0013725	
-0.16568868	0.0013931	
-0.16449056	0.0014138	
-0.16331462	0.0014034	
-0.16228117	0.0013931	
-0.16126779	0.0013828	
-0.15993033	0.0013828	
-0.15849153	0.0013622	
-0.15716674	0.0013828	
-0.15451398	0.0014034	
-0.15233732	0.0013828	
-0.15055228	0.0014034	
-0.14913143	0.0014241	
-0.14711838	0.0014138	
-0.14493749	0.0013931	
-0.14264365	0.0014138	
-0.14033608	0.0014034	
-0.1385331	0.0014034	
-0.13668895	0.0014034	
-0.13479729	0.0013828	
-0.13269346	0.0014034	
-0.13045029	0.0013931	
-0.12845624	0.0013828	
-0.12713778	0.0013931	
-0.12632707	0.0014034	
-0.12533585	0.0013931	
-0.12440057	0.0013828	
-0.12340725	0.0013931	
-0.12223868	0.0014034	
-0.12150081	0.0014034	
-0.12047265	0.0014034	
-0.11929881	0.0014034	
-0.1178769	0.0014034	
-0.11530755	0.0014034	
-0.11204572	0.0013828	
-0.10927052	0.0013931	
-0.10664206	0.0014034	
-0.10492036	0.0013931	
-0.1033042	0.0014034	
-0.10067889	0.0014344	
-0.09648179	0.0014241	
-0.09147926	0.0014241	
-0.08550873	0.0014138	
-0.08074791	0.0014241	
-0.07686432	0.0014344	
-0.07219852	0.0014757	
-0.06663124	0.0014653	
-0.06186831	0.001486	
-0.05912478	0.0014653	
-0.05707056	0.001455	
-0.05588089	0.001486	
-0.05575211	0.0014757	
-0.05575633	0.001486	
-0.0557595	0.001486	
-0.05575527	0.001455	
-0.05574894	0.0014757	
-0.05575	0.001486	
-0.05575	0.001486	
-0.05574577	0.001486	
-0.05574366	0.001486	
-0.05574155	0.0014757	
-0.05574155	0.001486	
-0.05573733	0.001486	
-0.05574155	0.0015066	
-0.05574155	0.001486	
-0.05573733	0.0014757	
-0.05573733	0.0015066	
-0.05573733	0.001486	
-0.05573522	0.0014963	
-0.055731	0.0015066	
-0.05573311	0.001455	
-0.05573311	0.0014757	
-0.05573311	0.0014653	
-0.05573311	0.0014757	
-0.055731	0.0014653	
-0.05572888	0.0014653	
-0.05572888	0.0014653	
-0.055731	0.001455	
-0.05572677	0.0014653	
-0.05572888	0.0014757	
-0.05572677	0.0014653	
-0.05572677	0.0014653	
-0.05572677	0.001486	
-0.05572466	0.0014653	
-0.05572466	0.001455	
-0.05572677	0.0014653	
-0.05572255	0.0014653	
-0.05572677	0.0014653	
-0.05572255	0.001486	
-0.05572255	0.0014757	
-0.05572255	0.001486	
-0.05572044	0.0014653	
-0.05572255	0.001486	
-0.05572466	0.0014653	
-0.05572466	0.001455	
-0.05572044	0.001486	
