#INFO
#COMMENT: 

#DATA:
-0.53593817	-1.3812766	
-0.53593395	-1.381194	
-0.53593606	-1.3812353	
-0.53593289	-1.381256	
-0.53593817	-1.381256	
-0.53593184	-1.381256	
-0.53593289	-1.3813179	
-0.53592972	-1.3812147	
-0.53592972	-1.3810393	
-0.53592972	-1.3803066	
-0.53593184	-1.3785626	
-0.53592972	-1.3683877	
-0.53592128	-1.3537548	
-0.53591072	-1.3561798	
-0.53571438	-1.3614738	
-0.53398532	-1.3673971	
-0.53252224	-1.3723813	
-0.53038991	-1.3637337	
-0.52853943	-1.3663755	
-0.5265496	-1.3712772	
-0.52464423	-1.3759415	
-0.52329835	-1.3785007	
-0.5221414	-1.3802447	
-0.52093062	-1.3817307	
-0.51979795	-1.3828039	
-0.51867689	-1.3836294	
-0.51732677	-1.384424	
-0.51629544	-1.385198	
-0.51479436	-1.3858893	
-0.5127919	-1.3864053	
-0.51075668	-1.38688	
-0.50858212	-1.3872825	
-0.50663452	-1.3875301	
-0.50496877	-1.3877365	
-0.50350464	-1.3879532	
-0.50182729	-1.3880255	
-0.50065979	-1.3883454	
-0.49940889	-1.3882009	
-0.49817277	-1.388139	
-0.49641729	-1.3880255	
-0.49462064	-1.3880564	
-0.49303934	-1.3880358	
-0.49160057	-1.3880048	
-0.49001505	-1.3879016	
-0.48848547	-1.3878397	
-0.48776026	-1.3876849	
-0.48681655	-1.3876127	
-0.48576411	-1.3876436	
-0.48447943	-1.3876333	
-0.48256983	-1.387592	
-0.48048925	-1.3875508	
-0.47912224	-1.3875611	
-0.47794206	-1.3875714	
-0.47637132	-1.3874579	
-0.47492513	-1.3874063	
-0.473499	-1.3874785	
-0.47191875	-1.3874992	
-0.47024353	-1.3875817	
-0.4691457	-1.3877262	
-0.46774701	-1.3876333	
-0.46647289	-1.3877365	
-0.46512488	-1.3877468	
-0.46363013	-1.387654	
-0.46225889	-1.3876436	
-0.46079265	-1.3876643	
-0.4589295	-1.3872928	
-0.45768283	-1.3873134	
-0.45679189	-1.3872309	
-0.45599702	-1.3871586	
-0.45543965	-1.387107	
-0.45496463	-1.3870245	
-0.45420565	-1.3869006	
-0.45360184	-1.3869006	
-0.45287874	-1.3868078	
-0.4523446	-1.3868387	
-0.45176402	-1.3867252	
-0.45113276	-1.3866839	
-0.45054268	-1.3865085	
-0.45009302	-1.3864053	
-0.44973833	-1.386426	
-0.44949765	-1.386364	
-0.44928337	-1.386364	
-0.44890335	-1.3864363	
-0.44852121	-1.3863847	
-0.4480673	-1.3864466	
-0.44743077	-1.3864672	
-0.44716476	-1.3863847	
-0.44691985	-1.3864672	
-0.44658523	-1.3861473	
-0.44628015	-1.3858893	
-0.44612392	-1.3857862	
-0.44596664	-1.3847336	
-0.44582519	-1.3842589	
-0.44567529	-1.382226	
-0.44539661	-1.37654	
-0.44520871	-1.3707096	
-0.44501448	-1.3583677	
-0.44477591	-1.3398546	
-0.44460701	-1.3268626	
-0.44436106	-1.3142214	
-0.44427027	-1.3124774	
-0.44423649	-1.3141182	
-0.44416155	-1.2817258	
-0.44347645	-1.2149904	
-0.44296554	-1.1963639	
-0.44285364	-1.196106	
-0.44281353	-1.1958067	
-0.44277975	-1.1883871	
-0.44248313	-1.1762722	
-0.44210944	-1.1671602	
-0.44152674	-1.1619076	
-0.44112983	-1.1584816	
-0.4405883	-1.1543126	
-0.44024418	-1.1515883	
-0.43992538	-1.1501745	
-0.43966572	-1.1489775	
-0.4394166	-1.1482036	
-0.4393047	-1.1476876	
-0.4391717	-1.1466867	
-0.43870406	-1.1448189	
-0.43830082	-1.1421049	
-0.43804325	-1.1393187	
-0.43767379	-1.1349433	
-0.43726526	-1.1303615	
-0.43691058	-1.1268529	
-0.43669946	-1.126079	
-0.43662768	-1.1259035	
-0.43655589	-1.1258107	
-0.43646511	-1.1252534	
-0.43618432	-1.1247787	
-0.43600487	-1.1248923	
-0.43569663	-1.1263266	
-0.435419	-1.128762	
-0.43504743	-1.1361507	
-0.43462518	-1.1528473	
-0.43420294	-1.1722167	
-0.43375642	-1.1962504	
-0.43331306	-1.2316251	
-0.43281692	-1.2716954	
-0.43243268	-1.305677	
-0.43211811	-1.3286685	
-0.4318616	-1.3524133	
-0.43136652	-1.3738879	
-0.43096433	-1.3808638	
-0.43062231	-1.3838874	
-0.43026235	-1.3855591	
-0.4298591	-1.3866117	
-0.4292743	-1.3869006	
-0.42867474	-1.3870038	
-0.4280741	-1.3870245	
-0.42735628	-1.3869832	
-0.42655085	-1.3869626	
-0.42573592	-1.3872205	
-0.42450613	-1.3874269	
-0.4229565	-1.3874166	
-0.42131819	-1.3876333	
-0.41870978	-1.3876333	
-0.41655317	-1.3876127	
-0.41466363	-1.3876127	
-0.41190637	-1.387654	
-0.40817164	-1.3877675	
-0.40523599	-1.3877675	
-0.402237	-1.3878087	
-0.39947553	-1.3878603	
-0.39697482	-1.3878707	
-0.39410778	-1.3877984	
-0.39113518	-1.3878294	
-0.38816364	-1.3878191	
-0.38560484	-1.3878191	
-0.38212344	-1.3878191	
-0.37905373	-1.3877675	
-0.37433517	-1.3879119	
-0.37166236	-1.3878707	
-0.36835619	-1.3879532	
-0.36592092	-1.3879016	
-0.36348774	-1.3877778	
-0.36006123	-1.3877365	
-0.3567635	-1.3877262	
-0.35320821	-1.3875301	
-0.35161107	-1.3876436	
-0.35011738	-1.3876643	
-0.34797344	-1.3876333	
-0.34467045	-1.387654	
-0.3421486	-1.3875508	
-0.33997088	-1.3875817	
-0.33843496	-1.3875508	
-0.337069	-1.3875714	
-0.33596378	-1.3876746	
-0.33516679	-1.3876952	
-0.3341471	-1.3877159	
-0.3332171	-1.3877675	
-0.33150385	-1.3877675	
-0.32997427	-1.3876849	
-0.32817445	-1.3877675	
-0.32667338	-1.3876952	
-0.32558926	-1.387654	
-0.32497701	-1.3877159	
-0.32459171	-1.3877468	
-0.32354666	-1.3876849	
-0.32182496	-1.3877468	
-0.31974118	-1.387623	
-0.31780731	-1.3875817	
-0.31534774	-1.387623	
-0.31342126	-1.3875198	
-0.31171856	-1.387623	
-0.31059433	-1.387623	
-0.30946061	-1.3877056	
-0.30775157	-1.3875508	
-0.30617344	-1.3876024	
-0.30479587	-1.3876333	
-0.30365686	-1.3877468	
-0.30250627	-1.3878087	
-0.30108436	-1.3878913	
-0.29949567	-1.3879223	
-0.29787531	-1.3879119	
-0.2969147	-1.3878913	
-0.29604593	-1.3877262	
-0.2946557	-1.3876849	
-0.29320107	-1.3878191	
-0.29132419	-1.3877881	
-0.28957504	-1.3878397	
-0.28747121	-1.3878707	
-0.28530616	-1.38785	
-0.28423894	-1.3877778	
-0.28310521	-1.3878294	
-0.28217101	-1.3876849	
-0.28176987	-1.3878294	
-0.28168331	-1.3878087	
-0.28165376	-1.3877984	
-0.28164742	-1.3878707	
-0.28163264	-1.3878397	
-0.28162525	-1.3878087	
-0.28161892	-1.3876952	
-0.28156508	-1.3877365	
-0.28147747	-1.38785	
-0.28131596	-1.3878707	
-0.27994261	-1.387881	
-0.27740281	-1.3881286	
-0.27481763	-1.3880255	
-0.27129611	-1.3880874	
-0.26922923	-1.3880977	
-0.2673249	-1.3881183	
-0.26560532	-1.3883144	
-0.26410846	-1.388108	
-0.26290084	-1.388139	
-0.26181145	-1.3881286	
-0.26049089	-1.3880874	
-0.25871641	-1.3881596	
-0.25709605	-1.3880461	
-0.25501756	-1.3880151	
-0.25361254	-1.3879739	
-0.25226241	-1.3880151	
-0.25063361	-1.3879429	
-0.2492402	-1.3879635	
-0.24761879	-1.3878397	
-0.2457968	-1.3879532	
-0.24385659	-1.3879223	
-0.24205994	-1.3878707	
-0.24046493	-1.3879635	
-0.23854899	-1.3879532	
-0.23669112	-1.388077	
-0.23587197	-1.3880358	
-0.23528927	-1.3881286	
-0.23474985	-1.3880151	
-0.23419249	-1.3878707	
-0.23358657	-1.3880048	
-0.2324729	-1.3879532	
-0.23162947	-1.3879945	
-0.23118611	-1.3879739	
-0.2307132	-1.3879842	
-0.22986978	-1.3879842	
-0.22832225	-1.3879739	
-0.22685179	-1.3879016	
-0.22499075	-1.38785	
-0.22328594	-1.3879842	
-0.22087281	-1.3879739	
-0.21924506	-1.3880048	
-0.21890621	-1.3878913	
-0.21886187	-1.3878913	
-0.21884498	-1.3882215	
-0.2188281	-1.388624	
-0.21881965	-1.3883763	
-0.21881332	-1.3883866	
-0.21879643	-1.3884589	
-0.2179815	-1.3885105	
-0.21629991	-1.3884073	
-0.21450009	-1.3884176	
-0.21236248	-1.3883763	
-0.21107781	-1.3883969	
-0.21021959	-1.3884692	
-0.20945322	-1.3883763	
-0.2084219	-1.3884073	
-0.20742118	-1.3884485	
-0.20642152	-1.3886343	
-0.20555381	-1.3884176	
-0.20470826	-1.3884692	
-0.20392711	-1.3883763	
-0.20295067	-1.3883866	
-0.20213785	-1.3883041	
-0.20108752	-1.3883247	
-0.20031481	-1.3882525	
-0.19949883	-1.3881699	
-0.19896258	-1.3880667	
-0.19815079	-1.3878087	
-0.19725141	-1.3876127	
-0.1966191	-1.3875095	
-0.19623275	-1.387396	
-0.1957345	-1.3872721	
-0.19546216	-1.387138	
-0.19477918	-1.3869935	
-0.19434638	-1.3867768	
-0.19356945	-1.3863021	
-0.19311765	-1.3859513	
-0.19274713	-1.3857036	
-0.1923101	-1.3853631	
-0.19175063	-1.38494	
-0.19124922	-1.3846717	
-0.19086075	-1.3843002	
-0.19031289	-1.383939	
-0.18945257	-1.3832476	
-0.18852891	-1.3825768	
-0.18757781	-1.3818958	
-0.18684311	-1.3812972	
-0.18622452	-1.3806162	
-0.18578011	-1.3801415	
-0.18517208	-1.3792746	
-0.18454293	-1.3780982	
-0.18370795	-1.3769218	
-0.18295424	-1.3761582	
-0.18243171	-1.3750953	
-0.18159145	-1.3739499	
-0.18067623	-1.3728767	
-0.18009143	-1.3717002	
-0.17968818	-1.3708231	
-0.17919099	-1.3698531	
-0.17880675	-1.3687386	
-0.17833595	-1.3672113	
-0.17747245	-1.3654777	
-0.17654034	-1.3632384	
-0.17517122	-1.3605657	
-0.17427395	-1.3578104	
-0.17339463	-1.3553646	
-0.17281615	-1.3535175	
-0.17223768	-1.3516703	
-0.17179432	-1.3498954	
-0.17127391	-1.3481927	
-0.17081366	-1.3467273	
-0.17034919	-1.3449214	
-0.16988578	-1.3423829	
-0.16928197	-1.3393387	
-0.16842059	-1.336377	
-0.16733015	-1.3330748	
-0.16616582	-1.33001	
-0.16536778	-1.3269555	
-0.16450957	-1.324097	
-0.1638192	-1.3216823	
-0.16294198	-1.3195668	
-0.1623424	-1.3180911	
-0.1617597	-1.3163369	
-0.16102289	-1.3146961	
-0.16008867	-1.3127148	
-0.15902989	-1.3110534	
-0.15826141	-1.3100317	
-0.15766077	-1.3090101	
-0.1571773	-1.3082878	
-0.15679728	-1.3076892	
-0.15611323	-1.3068431	
-0.15514524	-1.3060175	
-0.15395345	-1.3055015	
-0.15328631	-1.3052229	
-0.15292529	-1.3049237	
-0.15256955	-1.3048205	
-0.15186018	-1.3047689	
-0.15140416	-1.3044696	
-0.15083307	-1.304449	
-0.15018493	-1.3044386	
-0.14980068	-1.3044696	
-0.14927921	-1.3046966	
-0.14849701	-1.3048514	
-0.14770741	-1.3050888	
-0.14697798	-1.3052539	
-0.14634884	-1.3053983	
-0.14595404	-1.3055944	
-0.14519717	-1.3061413	
-0.14457225	-1.3068843	
-0.14352614	-1.3072352	
-0.14255392	-1.3077615	
-0.141853	-1.3080607	
-0.14110351	-1.3086593	
-0.14018513	-1.3092578	
-0.13907569	-1.3101762	
-0.13747433	-1.3112081	
-0.13650422	-1.3115796	
-0.13626143	-1.3116416	
-0.13619493	-1.3116003	
-0.13606297	-1.3118273	
-0.13576107	-1.3118686	
-0.13549505	-1.3120337	
-0.13532826	-1.3121369	
-0.13509603	-1.3123226	
-0.13459039	-1.3126322	
-0.13365934	-1.3130037	
-0.13285391	-1.3132101	
-0.13203476	-1.3133752	
-0.13119344	-1.3134062	
-0.13047351	-1.3133752	
-0.12967652	-1.3132926	
-0.12891543	-1.3131069	
-0.1285048	-1.3128592	
-0.128243	-1.3127767	
-0.12804561	-1.3128076	
-0.12786615	-1.3126528	
-0.12769725	-1.3127354	
-0.12750091	-1.3124465	
-0.12712511	-1.3124877	
-0.12698155	-1.3123845	
-0.12675565	-1.312271	
-0.1265213	-1.3119924	
-0.12623523	-1.311786	
-0.12580877	-1.3115177	
-0.12489882	-1.3108779	
-0.12400472	-1.3101349	
-0.12309056	-1.3092991	
-0.12228513	-1.3085148	
-0.12135831	-1.3079163	
-0.12059721	-1.3074829	
-0.12013485	-1.3072971	
-0.11971472	-1.3070288	
-0.11925553	-1.3066986	
-0.11891774	-1.3064096	
-0.11863272	-1.3063684	
-0.11843004	-1.306162	
-0.11808169	-1.3058421	
-0.11721715	-1.3050784	
-0.11619109	-1.3047998	
-0.11497186	-1.3043251	
-0.11405244	-1.3042323	
-0.1136872	-1.3042013	
-0.11337896	-1.3043561	
-0.11273081	-1.3046863	
-0.11203622	-1.3057905	
-0.1112519	-1.3077924	
-0.11036203	-1.3108366	
-0.10967377	-1.3145619	
-0.10903829	-1.3188857	
-0.10831097	-1.3227864	
-0.10755938	-1.3272238	
-0.10685423	-1.3310213	
-0.10609103	-1.3356753	
-0.10502486	-1.3428576	
-0.10402729	-1.349658	
-0.10289462	-1.3566237	
-0.10191079	-1.3613912	
-0.10110536	-1.3649514	
-0.10028621	-1.3689863	
-0.09937099	-1.3730624	
-0.09831538	-1.3763543	
-0.09746351	-1.3787071	
-0.09660529	-1.3805026	
-0.09578931	-1.3814004	
-0.0950261	-1.3826697	
-0.09417845	-1.3837429	
-0.09324108	-1.3845994	
-0.0922773	-1.3850844	
-0.09145604	-1.3855591	
-0.09083428	-1.3858274	
-0.08994335	-1.3860338	
-0.08910625	-1.3863021	
-0.08837788	-1.3865085	
-0.08758617	-1.3865291	
-0.0870742	-1.3867562	
-0.0866794	-1.3867974	
-0.08566496	-1.3870038	
-0.08405727	-1.3870658	
-0.08288552	-1.3872412	
-0.08214131	-1.3873341	
-0.08191964	-1.3873547	
-0.08180774	-1.3873753	
-0.08158818	-1.3873857	
-0.08114904	-1.3873031	
-0.08061596	-1.3873134	
-0.07998681	-1.3872928	
-0.07948223	-1.3873857	
-0.07899032	-1.3873134	
-0.07838334	-1.3874166	
-0.07759797	-1.3873753	
-0.07654764	-1.3875404	
-0.07555747	-1.387396	
-0.0749505	-1.3874166	
-0.07453459	-1.3873547	
-0.07438258	-1.387396	
-0.07403634	-1.3874579	
-0.07345259	-1.3873753	
-0.07276222	-1.3874166	
-0.07193568	-1.387365	
-0.07093496	-1.3874992	
-0.06986668	-1.3875095	
-0.06831599	-1.3874372	
-0.06612454	-1.3874992	
-0.06426772	-1.3874682	
-0.06321423	-1.387592	
-0.06260092	-1.3875404	
-0.06221666	-1.3874579	
-0.0618282	-1.3874888	
-0.06120961	-1.3873857	
-0.06057308	-1.3874166	
-0.060078	-1.3874372	
-0.0595618	-1.387396	
-0.05899494	-1.3871586	
-0.0585917	-1.3872721	
-0.05818423	-1.387396	
-0.05753714	-1.3874785	
-0.05695656	-1.3873753	
-0.05643509	-1.3875198	
-0.0559379	-1.387365	
-0.05551565	-1.3873237	
-0.05528658	-1.3872205	
-0.05506807	-1.3873031	
-0.05495829	-1.3872515	
-0.05434181	-1.3874888	
-0.05396496	-1.387654	
-0.05390268	-1.3874476	
-0.05370528	-1.3874372	
-0.0532482	-1.3872928	
-0.05267078	-1.3872928	
-0.0519688	-1.3874785	
-0.05114965	-1.387396	
-0.05035688	-1.3872618	
-0.0498523	-1.3872515	
-0.04952717	-1.3873341	
-0.04904898	-1.3872309	
-0.04866052	-1.3872309	
-0.0482045	-1.3873031	
-0.04795748	-1.3872515	
-0.04765769	-1.3872825	
-0.04728928	-1.3873753	
-0.04677203	-1.3872309	
-0.04638357	-1.3871689	
-0.04616822	-1.3871999	
-0.04600672	-1.3871896	
-0.04576709	-1.3870658	
-0.04546941	-1.3870658	
-0.04522134	-1.3870658	
-0.04497433	-1.3870451	
-0.04479487	-1.3870038	
-0.0445922	-1.3869832	
-0.04443174	-1.3871483	
-0.04414884	-1.3871277	
-0.04397572	-1.3871689	
-0.04383427	-1.3872102	
-0.04336241	-1.3871689	
-0.04269738	-1.3871277	
-0.04227724	-1.3872721	
-0.04196901	-1.3870967	
-0.04155626	-1.387107	
-0.04119734	-1.3871896	
-0.04086587	-1.3870348	
-0.04062731	-1.387107	
-0.04036974	-1.3870451	
-0.04008367	-1.3870451	
-0.04004989	-1.3870038	
-0.04004778	-1.3871173	
-0.04004672	-1.3871483	
-0.0400425	-1.3870864	
-0.04004566	-1.3870658	
-0.04004039	-1.3871483	
-0.04004144	-1.3871483	
-0.04003722	-1.3871277	
-0.04004039	-1.3872515	
-0.04003722	-1.3871793	
-0.04003616	-1.387107	
-0.04003511	-1.3870967	
-0.04003511	-1.3869729	
-0.04003511	-1.3870967	
-0.040033	-1.3871277	
-0.04003511	-1.3871277	
-0.04003511	-1.3871277	
-0.040033	-1.3870864	
-0.04003089	-1.3871689	
