# Messung 25.11.09: Abhängigkeit von B-Feld und Spulenstrom
# Strom in [A], B-Feld in [mT] (bei konstantem Jochabstand von 11mm)
0.0	0.4
0.1	12.9
0.2	27.7
0.3	39.1
0.4	53.9
0.5	67.1
0.6	81.8
0.7	93.2
0.8	102.8
0.9	111.4
1.0	119.3
1.1	128.2
1.2	135.2
1.3	142.6
1.4	149.4
1.5	155.3
1.6	164.2
1.7	170.5
1.8	177.7
1.9	190.4
2.0	194.8
