# zeit: zahl : winkel
12.7	0	0
12.72	0	0
12.74	0	0
12.76	0	0
12.78	0	0
12.8	0	0
12.82	0	0
12.84	0	0
12.86	0	0
12.88	0	0
12.9	0	0
12.92	0	0
12.94	0	0
12.96	0	0
12.98	0	0
13	0	0
13.02	0	0
13.04	0	0
13.06	0	0
13.08	0	0
13.1	0	0
13.12	0	0
13.14	1	10
13.16	1	10
13.18	2	20
13.2	2	20
13.22	3	30
13.24	3	30
13.26	3	30
13.28	3	30
13.3	3	30
13.32	3	30
13.34	4	40
13.36	4	40
13.38	5	50
13.4	6	60
13.42	7	70
13.44	8	80
13.46	9	90
13.48	10	100
13.5	11	110
13.52	12	120
13.54	13	130
13.56	14	140
13.58	14	140
13.6	15	150
13.62	15	150
13.64	16	160
13.66	16	160
13.68	17	170
13.7	18	180
13.72	19	190
13.74	19	190
13.76	20	200
13.78	21	210
13.8	22	220
13.82	22	220
13.84	23	230
13.86	24	240
13.88	25	250
13.9	25	250
13.92	26	260
13.94	27	270
13.96	27	270
13.98	28	280
14	29	290
14.02	29	290
14.04	30	300
14.06	30	300
14.08	31	310
14.1	32	320
14.12	32	320
14.14	33	330
14.16	34	340
14.18	34	340
14.2	35	350
14.22	35	350
14.24	36	360
14.26	37	370
14.28	37	370
14.3	38	380
14.32	38	380
14.34	39	390
14.36	40	400
14.38	40	400
14.4	41	410
14.42	42	420
14.44	43	430
14.46	43	430
14.48	44	440
14.5	44	440
14.52	45	450
14.54	45	450
14.56	46	460
14.58	46	460
14.6	47	470
14.62	47	470
14.64	48	480
14.66	48	480
14.68	49	490
14.7	49	490
14.72	50	500
14.74	50	500
14.76	51	510
14.78	51	510
14.8	52	520
14.82	52	520
14.84	53	530
14.86	53	530
14.88	54	540
14.9	54	540
14.92	55	550
14.94	55	550
14.96	56	560
14.98	56	560
15	56	560
15.02	57	570
15.04	57	570
15.06	58	580
15.08	58	580
15.1	59	590
15.12	59	590
15.14	60	600
15.16	60	600
15.18	61	610
15.2	61	610
15.22	62	620
15.24	62	620
15.26	63	630
15.28	63	630
15.3	64	640
15.32	64	640
15.34	65	650
15.36	65	650
15.38	66	660
15.4	66	660
15.42	66	660
15.44	67	670
15.46	67	670
15.48	68	680
15.5	68	680
15.52	68	680
15.54	69	690
15.56	69	690
15.58	70	700
15.6	70	700
15.62	71	710
15.64	71	710
15.66	72	720
15.68	72	720
15.7	72	720
15.72	73	730
15.74	73	730
15.76	74	740
15.78	74	740
15.8	74	740
15.82	75	750
15.84	75	750
15.86	76	760
15.88	76	760
15.9	77	770
15.92	77	770
15.94	78	780
15.96	78	780
15.98	79	790
16	79	790
16.02	80	800
16.04	80	800
16.06	81	810
16.08	81	810
16.1	82	820
16.12	83	830
16.14	83	830
16.16	84	840
16.18	84	840
16.2	85	850
16.22	85	850
16.24	86	860
16.26	86	860
16.28	87	870
16.3	87	870
16.32	88	880
16.34	88	880
16.36	89	890
16.38	89	890
16.4	90	900
16.42	90	900
16.44	91	910
16.46	91	910
16.48	92	920
16.5	92	920
16.52	92	920
16.54	93	930
16.56	93	930
16.58	94	940
16.6	95	950
16.62	95	950
16.64	95	950
16.66	96	960
16.68	97	970
16.7	97	970
16.72	98	980
16.74	98	980
16.76	99	990
16.78	99	990
16.8	100	1000
16.82	100	1000
16.84	101	1010
16.86	101	1010
16.88	102	1020
16.9	103	1030
16.92	103	1030
16.94	104	1040
16.96	104	1040
16.98	105	1050
17	105	1050
17.02	106	1060
17.04	107	1070
17.06	107	1070
17.08	108	1080
17.1	108	1080
17.12	109	1090
17.14	110	1100
17.16	110	1100
17.18	111	1110
17.2	111	1110
17.22	112	1120
17.24	112	1120
17.26	113	1130
17.28	113	1130
17.3	114	1140
17.32	114	1140
17.34	115	1150
17.36	115	1150
17.38	116	1160
17.4	116	1160
17.42	117	1170
17.44	117	1170
17.46	118	1180
17.48	118	1180
17.5	119	1190
17.52	119	1190
17.54	120	1200
17.56	120	1200
17.58	121	1210
17.6	121	1210
17.62	122	1220
17.64	122	1220
17.66	123	1230
17.68	123	1230
17.7	124	1240
17.72	124	1240
17.74	125	1250
17.76	125	1250
17.78	126	1260
17.8	126	1260
17.82	127	1270
17.84	127	1270
17.86	127	1270
17.88	128	1280
17.9	128	1280
17.92	129	1290
17.94	129	1290
17.96	129	1290
17.98	130	1300
18	130	1300
18.02	131	1310
18.04	131	1310
18.06	131	1310
18.08	131	1310
18.1	132	1320
18.12	132	1320
18.14	132	1320
18.16	132	1320
18.18	133	1330
18.2	133	1330
18.22	133	1330
18.24	133	1330
18.26	133	1330
18.28	134	1340
18.3	134	1340
18.32	134	1340
18.34	134	1340
18.36	134	1340
18.38	134	1340
18.4	134	1340
18.42	134	1340
18.44	134	1340
18.46	134	1340
18.48	134	1340
18.5	134	1340
18.52	135	1350
18.54	135	1350
18.56	135	1350
18.58	135	1350
18.6	135	1350
18.62	135	1350
18.64	135	1350
18.66	135	1350
18.68	135	1350
18.7	135	1350
18.72	135	1350
18.74	135	1350
18.76	135	1350
18.78	135	1350
18.8	135	1350
18.82	135	1350
18.84	135	1350
18.86	135	1350
18.88	135	1350
18.9	136	1360
18.92	136	1360
18.94	136	1360
18.96	136	1360
18.98	136	1360
19	136	1360
19.02	137	1370
19.04	137	1370
19.06	137	1370
19.08	137	1370
19.1	137	1370
19.12	137	1370
19.14	138	1380
19.16	138	1380
19.18	138	1380
19.2	138	1380
19.22	139	1390
19.24	139	1390
19.26	139	1390
19.28	139	1390
19.3	140	1400
19.32	140	1400
19.34	140	1400
19.36	140	1400
19.38	141	1410
19.4	141	1410
19.42	141	1410
19.44	142	1420
19.46	142	1420
19.48	142	1420
19.5	142	1420
19.52	143	1430
19.54	143	1430
19.56	143	1430
19.58	144	1440
19.6	144	1440
19.62	144	1440
19.64	144	1440
19.66	145	1450
19.68	145	1450
19.7	145	1450
19.72	146	1460
19.74	146	1460
19.76	146	1460
19.78	146	1460
19.8	147	1470
19.82	147	1470
19.84	147	1470
19.86	147	1470
19.88	148	1480
19.9	148	1480
19.92	148	1480
19.94	148	1480
19.96	149	1490
19.98	149	1490
20	149	1490
20.03	150	1500
20.05	150	1500
20.06	150	1500
20.08	151	1510
20.1	151	1510
20.12	151	1510
20.14	151	1510
20.16	152	1520
20.18	152	1520
20.2	152	1520
20.22	153	1530
20.24	153	1530
20.26	154	1540
20.28	154	1540
20.3	155	1550
20.32	155	1550
20.34	155	1550
20.36	156	1560
20.38	156	1560
20.4	157	1570
20.42	157	1570
20.44	157	1570
20.46	158	1580
20.48	158	1580
20.5	159	1590
20.52	159	1590
20.54	160	1600
20.56	160	1600
20.58	160	1600
20.6	161	1610
20.62	161	1610
20.64	162	1620
20.66	162	1620
20.68	163	1630
20.7	163	1630
20.72	163	1630
20.74	164	1640
20.76	164	1640
20.78	164	1640
20.8	165	1650
20.82	165	1650
20.84	166	1660
20.86	166	1660
20.88	167	1670
20.9	167	1670
20.92	167	1670
20.94	168	1680
20.96	168	1680
20.98	168	1680
21	169	1690
21.02	169	1690
21.04	169	1690
21.06	170	1700
21.08	170	1700
21.1	171	1710
21.12	171	1710
21.14	172	1720
21.16	172	1720
21.18	172	1720
21.2	173	1730
21.22	173	1730
21.24	174	1740
21.26	174	1740
21.28	175	1750
21.3	175	1750
21.32	176	1760
21.34	176	1760
21.36	177	1770
21.38	177	1770
21.4	178	1780
21.42	178	1780
21.44	179	1790
21.46	179	1790
21.48	180	1800
21.5	180	1800
21.52	181	1810
21.54	181	1810
21.56	182	1820
21.58	182	1820
21.6	182	1820
21.62	183	1830
21.64	183	1830
21.66	184	1840
21.68	184	1840
21.7	184	1840
21.72	185	1850
21.74	185	1850
21.76	185	1850
21.78	186	1860
21.8	186	1860
21.82	187	1870
21.84	187	1870
21.86	187	1870
21.88	188	1880
21.9	188	1880
21.92	188	1880
21.94	189	1890
21.96	189	1890
21.98	190	1900
22	190	1900
22.02	191	1910
22.04	191	1910
22.06	191	1910
22.08	192	1920
22.1	192	1920
22.12	192	1920
22.14	192	1920
22.16	193	1930
22.18	193	1930
22.2	193	1930
22.22	194	1940
22.24	194	1940
22.26	195	1950
22.28	195	1950
22.3	195	1950
22.32	196	1960
22.34	196	1960
22.36	197	1970
22.38	197	1970
22.4	197	1970
22.42	198	1980
22.44	198	1980
22.46	198	1980
22.48	199	1990
22.5	199	1990
22.52	199	1990
22.54	200	2000
22.56	200	2000
22.58	200	2000
22.6	200	2000
22.62	200	2000
22.64	201	2010
22.66	201	2010
22.68	201	2010
22.7	202	2020
22.72	202	2020
22.74	202	2020
22.76	202	2020
22.78	202	2020
22.8	203	2030
22.82	203	2030
22.84	203	2030
22.86	203	2030
22.88	203	2030
22.9	203	2030
22.92	203	2030
22.94	203	2030
22.96	204	2040
22.98	204	2040
23	204	2040
23.02	204	2040
23.04	204	2040
23.06	204	2040
23.08	204	2040
23.1	204	2040
23.12	204	2040
23.14	205	2050
23.16	205	2050
23.18	205	2050
23.2	205	2050
23.22	205	2050
23.24	205	2050
23.26	205	2050
23.28	205	2050
23.3	205	2050
23.32	206	2060
23.34	206	2060
23.36	206	2060
23.38	206	2060
23.4	206	2060
23.42	206	2060
23.44	207	2070
23.46	207	2070
23.48	207	2070
23.5	207	2070
23.52	208	2080
23.54	208	2080
23.56	208	2080
23.58	208	2080
23.6	209	2090
23.62	209	2090
23.64	209	2090
23.66	209	2090
23.68	210	2100
23.7	210	2100
23.72	210	2100
23.74	211	2110
23.76	211	2110
23.78	211	2110
23.8	212	2120
23.82	212	2120
23.84	212	2120
23.86	213	2130
23.88	213	2130
23.9	213	2130
23.92	214	2140
23.94	214	2140
23.96	214	2140
23.98	215	2150
24	215	2150
24.02	215	2150
24.04	215	2150
24.06	216	2160
24.08	216	2160
24.1	216	2160
24.12	217	2170
24.14	217	2170
24.16	217	2170
24.18	218	2180
24.2	218	2180
24.22	218	2180
24.24	219	2190
24.26	219	2190
24.28	219	2190
24.3	219	2190
24.32	220	2200
24.34	220	2200
24.36	220	2200
24.38	220	2200
24.4	221	2210
24.42	221	2210
24.44	221	2210
24.46	222	2220
24.48	222	2220
24.5	223	2230
24.52	223	2230
24.54	223	2230
24.56	224	2240
24.58	224	2240
24.6	224	2240
24.62	225	2250
24.64	225	2250
24.66	225	2250
24.68	226	2260
24.7	226	2260
24.72	227	2270
24.74	227	2270
24.76	227	2270
24.78	228	2280
24.8	228	2280
24.82	229	2290
24.84	229	2290
24.86	230	2300
24.88	230	2300
24.9	230	2300
24.92	231	2310
24.94	231	2310
24.96	232	2320
24.98	232	2320
25	233	2330
25.02	233	2330
25.04	233	2330
25.06	234	2340
25.08	234	2340
25.1	235	2350
25.12	235	2350
25.14	235	2350
25.16	236	2360
25.18	236	2360
25.2	236	2360
25.22	237	2370
25.24	237	2370
25.26	237	2370
25.28	238	2380
25.3	238	2380
25.32	239	2390
25.34	239	2390
25.36	239	2390
25.38	240	2400
25.4	240	2400
25.42	240	2400
25.44	241	2410
25.46	241	2410
25.48	241	2410
25.5	242	2420
25.52	242	2420
25.54	242	2420
25.56	243	2430
25.58	243	2430
25.6	244	2440
25.62	244	2440
25.64	244	2440
25.66	245	2450
25.68	245	2450
25.7	246	2460
25.72	246	2460
25.74	247	2470
25.76	247	2470
25.78	247	2470
25.8	248	2480
25.82	248	2480
25.84	249	2490
25.86	249	2490
25.88	250	2500
25.9	250	2500
25.92	250	2500
25.94	251	2510
25.96	251	2510
25.98	252	2520
26	252	2520
26.02	253	2530
26.04	253	2530
26.06	253	2530
26.08	254	2540
26.1	254	2540
26.12	254	2540
26.14	255	2550
26.16	255	2550
26.18	255	2550
26.2	256	2560
26.22	256	2560
26.24	256	2560
26.26	257	2570
26.28	257	2570
26.3	257	2570
26.32	258	2580
26.34	258	2580
26.36	259	2590
26.38	259	2590
26.4	259	2590
26.42	260	2600
26.44	260	2600
26.46	260	2600
26.48	261	2610
26.5	261	2610
26.52	261	2610
26.54	262	2620
26.56	262	2620
26.58	262	2620
26.6	262	2620
26.62	263	2630
26.64	263	2630
26.66	263	2630
26.68	264	2640
26.7	264	2640
26.72	264	2640
26.74	265	2650
26.76	265	2650
26.78	265	2650
26.8	266	2660
26.82	266	2660
26.84	267	2670
26.86	267	2670
26.88	267	2670
26.9	268	2680
26.92	268	2680
26.94	268	2680
26.96	269	2690
26.98	269	2690
27	269	2690
27.02	270	2700
27.04	270	2700
27.06	270	2700
27.08	271	2710
27.1	271	2710
27.12	271	2710
27.14	272	2720
27.16	272	2720
27.18	272	2720
27.2	272	2720
27.22	272	2720
27.24	273	2730
27.26	273	2730
27.28	273	2730
27.3	273	2730
27.32	274	2740
27.34	274	2740
27.36	274	2740
27.38	274	2740
27.4	274	2740
27.42	275	2750
27.44	275	2750
27.46	275	2750
27.48	275	2750
27.5	275	2750
27.52	275	2750
27.54	276	2760
27.56	276	2760
27.58	276	2760
27.6	276	2760
27.62	276	2760
27.64	276	2760
27.66	277	2770
27.68	277	2770
27.7	277	2770
27.72	277	2770
27.74	277	2770
27.76	277	2770
27.78	278	2780
27.8	278	2780
27.82	278	2780
27.84	278	2780
27.86	278	2780
27.88	279	2790
27.9	279	2790
27.92	279	2790
27.94	279	2790
27.96	280	2800
27.98	280	2800
28	280	2800
28.02	280	2800
28.04	281	2810
28.06	281	2810
28.08	281	2810
28.1	282	2820
28.12	282	2820
28.14	282	2820
28.16	283	2830
28.18	283	2830
28.2	283	2830
28.22	283	2830
28.24	284	2840
28.26	284	2840
28.28	284	2840
28.3	285	2850
28.32	285	2850
28.34	285	2850
28.36	285	2850
28.38	286	2860
28.4	286	2860
28.42	286	2860
28.44	287	2870
28.46	287	2870
28.48	287	2870
28.5	287	2870
28.52	288	2880
28.54	288	2880
28.56	288	2880
28.58	289	2890
28.6	289	2890
28.62	289	2890
28.64	289	2890
28.66	290	2900
28.68	290	2900
28.7	290	2900
28.72	290	2900
28.74	291	2910
28.76	291	2910
28.78	291	2910
28.8	291	2910
28.82	291	2910
28.84	292	2920
28.86	292	2920
28.88	292	2920
28.9	292	2920
28.92	293	2930
28.94	293	2930
28.96	293	2930
28.98	294	2940
29	294	2940
29.02	294	2940
29.04	294	2940
29.06	295	2950
29.08	295	2950
29.1	295	2950
29.12	296	2960
29.14	296	2960
29.16	296	2960
29.18	296	2960
29.2	297	2970
29.22	297	2970
29.24	298	2980
29.26	298	2980
29.28	298	2980
29.3	299	2990
29.32	299	2990
29.34	299	2990
29.36	300	3000
29.38	300	3000
29.4	300	3000
29.42	301	3010
29.44	301	3010
29.46	301	3010
29.48	302	3020
29.5	302	3020
29.52	302	3020
29.54	303	3030
29.56	303	3030
29.58	303	3030
29.6	304	3040
29.62	304	3040
29.64	304	3040
29.66	304	3040
29.68	305	3050
29.7	305	3050
29.72	305	3050
29.74	306	3060
29.76	306	3060
29.78	306	3060
29.8	306	3060
29.82	307	3070
29.84	307	3070
29.86	307	3070
29.88	307	3070
29.9	308	3080
29.92	308	3080
29.94	308	3080
29.96	308	3080
29.98	309	3090
30	309	3090
30.02	309	3090
30.04	309	3090
30.06	310	3100
30.08	310	3100
30.1	310	3100
30.12	311	3110
30.14	311	3110
30.16	311	3110
30.18	311	3110
30.2	312	3120
30.22	312	3120
30.24	312	3120
30.26	313	3130
30.28	313	3130
30.3	313	3130
30.32	313	3130
30.34	314	3140
30.36	314	3140
30.38	314	3140
30.4	315	3150
30.42	315	3150
30.44	315	3150
30.46	315	3150
30.48	316	3160
30.5	316	3160
30.52	317	3170
30.54	317	3170
30.56	317	3170
30.58	317	3170
30.6	318	3180
30.62	318	3180
30.64	318	3180
30.66	319	3190
30.68	319	3190
30.7	319	3190
30.72	320	3200
30.74	320	3200
30.76	320	3200
30.78	320	3200
30.8	321	3210
30.82	321	3210
30.84	321	3210
30.86	322	3220
30.88	322	3220
30.9	322	3220
30.92	322	3220
30.94	323	3230
30.96	323	3230
30.98	323	3230
31	323	3230
31.02	324	3240
31.04	324	3240
31.06	324	3240
31.08	324	3240
31.1	324	3240
31.12	325	3250
31.14	325	3250
31.16	325	3250
31.18	326	3260
31.2	326	3260
31.22	326	3260
31.24	326	3260
31.26	326	3260
31.28	326	3260
31.3	327	3270
31.32	327	3270
31.34	327	3270
31.36	327	3270
31.38	328	3280
31.4	328	3280
31.42	328	3280
31.44	328	3280
31.46	329	3290
31.48	329	3290
31.5	329	3290
31.52	329	3290
31.54	330	3300
31.56	330	3300
31.58	330	3300
31.6	330	3300
31.62	331	3310
31.64	331	3310
31.66	331	3310
31.68	331	3310
31.7	332	3320
31.72	332	3320
31.74	332	3320
31.76	332	3320
31.78	332	3320
31.8	333	3330
31.82	333	3330
31.84	333	3330
31.86	333	3330
31.88	334	3340
31.9	334	3340
31.92	334	3340
31.94	334	3340
31.96	334	3340
31.98	334	3340
32	335	3350
32.02	335	3350
32.04	335	3350
32.06	335	3350
32.08	335	3350
32.1	335	3350
32.12	335	3350
32.14	336	3360
32.16	336	3360
32.18	336	3360
32.2	336	3360
32.22	336	3360
32.24	336	3360
32.26	336	3360
32.28	336	3360
32.3	336	3360
32.32	336	3360
32.34	336	3360
32.36	336	3360
32.38	336	3360
32.4	336	3360
32.42	336	3360
32.44	336	3360
32.46	336	3360
32.48	336	3360
32.5	336	3360
32.52	336	3360
32.54	336	3360
32.56	337	3370
32.58	337	3370
32.6	337	3370
32.62	337	3370
32.64	337	3370
32.66	337	3370
32.68	337	3370
32.7	337	3370
32.72	337	3370
32.74	338	3380
32.76	338	3380
32.78	338	3380
32.8	338	3380
32.82	338	3380
32.84	338	3380
32.86	339	3390
32.88	339	3390
32.9	339	3390
32.92	339	3390
32.94	340	3400
32.96	340	3400
32.98	340	3400
33	340	3400
33.02	340	3400
33.04	341	3410
33.06	341	3410
33.08	341	3410
33.1	341	3410
33.12	341	3410
33.14	342	3420
33.16	342	3420
33.18	342	3420
33.2	342	3420
33.22	343	3430
33.24	343	3430
33.26	343	3430
33.28	343	3430
33.3	344	3440
33.32	344	3440
33.34	344	3440
33.36	344	3440
33.38	344	3440
33.4	345	3450
33.42	345	3450
33.44	345	3450
33.46	345	3450
33.48	346	3460
33.5	346	3460
33.52	346	3460
33.54	346	3460
33.56	346	3460
33.58	346	3460
33.6	347	3470
33.62	347	3470
33.64	347	3470
33.66	347	3470
33.68	347	3470
33.7	348	3480
33.72	348	3480
33.74	348	3480
33.76	348	3480
33.78	348	3480
33.8	349	3490
33.82	349	3490
33.84	349	3490
33.86	349	3490
33.88	349	3490
33.9	350	3500
33.92	350	3500
33.94	350	3500
33.96	350	3500
33.98	351	3510
34	351	3510
34.02	351	3510
34.04	351	3510
34.06	351	3510
34.08	352	3520
34.1	352	3520
34.12	352	3520
34.14	352	3520
34.16	353	3530
34.18	353	3530
34.2	353	3530
34.22	353	3530
34.24	354	3540
34.26	354	3540
34.28	354	3540
34.3	355	3550
34.32	355	3550
34.34	355	3550
34.36	355	3550
34.38	356	3560
34.4	356	3560
34.42	356	3560
34.44	356	3560
34.46	357	3570
34.48	357	3570
34.5	357	3570
34.52	357	3570
34.54	357	3570
34.56	358	3580
34.58	358	3580
34.6	358	3580
34.62	358	3580
34.64	358	3580
34.66	359	3590
34.68	359	3590
34.7	359	3590
34.72	359	3590
34.74	359	3590
34.76	359	3590
34.78	360	3600
34.8	360	3600
34.82	360	3600
34.84	360	3600
34.86	360	3600
34.88	360	3600
34.9	360	3600
34.92	360	3600
34.94	361	3610
34.96	361	3610
34.98	361	3610
35	361	3610
35.02	361	3610
35.04	361	3610
35.06	361	3610
35.08	361	3610
35.1	361	3610
35.12	362	3620
35.14	362	3620
35.16	362	3620
35.18	362	3620
35.2	362	3620
35.22	362	3620
35.24	362	3620
35.26	363	3630
35.28	363	3630
35.3	363	3630
35.32	363	3630
35.34	363	3630
35.36	364	3640
35.38	364	3640
35.4	364	3640
35.42	364	3640
35.44	364	3640
35.46	364	3640
35.48	365	3650
35.5	365	3650
35.52	365	3650
35.54	365	3650
35.56	366	3660
35.58	366	3660
35.6	366	3660
35.62	366	3660
35.64	367	3670
35.66	367	3670
35.68	367	3670
35.7	368	3680
35.72	368	3680
35.74	368	3680
35.76	369	3690
35.78	369	3690
35.8	369	3690
35.82	370	3700
35.84	370	3700
35.86	370	3700
35.88	370	3700
35.9	371	3710
35.92	371	3710
35.94	371	3710
35.96	371	3710
35.98	372	3720
36	372	3720
36.02	372	3720
36.04	373	3730
36.06	373	3730
36.08	373	3730
36.1	373	3730
36.12	374	3740
36.14	374	3740
36.16	374	3740
36.18	375	3750
36.2	375	3750
36.22	375	3750
36.24	376	3760
36.26	376	3760
36.28	376	3760
36.3	376	3760
36.32	377	3770
36.34	377	3770
36.36	377	3770
36.38	378	3780
36.4	378	3780
36.42	379	3790
36.44	379	3790
36.46	379	3790
36.48	380	3800
36.5	380	3800
36.52	381	3810
36.54	381	3810
36.56	381	3810
36.58	382	3820
36.6	382	3820
36.62	382	3820
36.64	383	3830
36.66	383	3830
36.68	384	3840
36.7	384	3840
36.72	385	3850
36.74	385	3850
36.76	386	3860
36.78	386	3860
36.8	386	3860
36.82	387	3870
36.84	387	3870
36.86	388	3880
36.88	388	3880
36.9	389	3890
36.92	389	3890
36.94	390	3900
36.96	390	3900
36.98	390	3900
37	391	3910
37.02	391	3910
37.04	392	3920
37.06	392	3920
37.08	393	3930
37.1	393	3930
37.12	393	3930
37.14	394	3940
37.16	394	3940
37.18	394	3940
37.2	395	3950
37.22	395	3950
37.24	395	3950
37.26	396	3960
37.28	396	3960
37.3	397	3970
37.32	397	3970
37.34	397	3970
37.36	398	3980
37.38	398	3980
37.4	398	3980
37.42	399	3990
37.44	399	3990
37.46	400	4000
37.48	400	4000
37.5	400	4000
37.52	401	4010
37.54	401	4010
37.56	402	4020
37.58	402	4020
37.6	402	4020
37.62	403	4030
37.64	403	4030
37.66	404	4040
37.68	404	4040
37.7	405	4050
37.72	405	4050
37.74	406	4060
37.76	406	4060
37.78	407	4070
37.8	407	4070
37.82	407	4070
37.84	408	4080
37.86	408	4080
37.88	409	4090
37.9	409	4090
37.92	409	4090
37.94	410	4100
37.96	410	4100
37.98	411	4110
38	411	4110
38.02	411	4110
38.04	412	4120
38.06	412	4120
38.08	412	4120
38.1	413	4130
38.12	413	4130
38.14	413	4130
38.16	414	4140
38.18	414	4140
38.2	414	4140
38.22	415	4150
38.24	415	4150
38.26	415	4150
38.28	416	4160
38.3	416	4160
38.32	416	4160
38.34	416	4160
38.36	417	4170
38.38	417	4170
38.4	417	4170
38.42	417	4170
38.44	418	4180
38.46	418	4180
38.48	418	4180
38.5	419	4190
38.52	419	4190
38.54	419	4190
38.56	420	4200
38.58	420	4200
38.6	420	4200
38.62	420	4200
38.64	421	4210
38.66	421	4210
38.68	422	4220
38.7	422	4220
38.72	422	4220
38.74	423	4230
38.76	423	4230
38.78	423	4230
38.8	424	4240
38.82	424	4240
38.84	424	4240
38.86	424	4240
38.88	425	4250
38.9	425	4250
38.92	425	4250
38.94	426	4260
38.96	426	4260
38.98	426	4260
39	427	4270
39.02	427	4270
39.04	427	4270
39.06	427	4270
39.08	428	4280
39.1	428	4280
39.12	428	4280
39.14	428	4280
39.16	429	4290
39.18	429	4290
39.2	429	4290
39.22	429	4290
39.24	429	4290
39.26	430	4300
39.28	430	4300
39.3	430	4300
39.32	430	4300
39.34	430	4300
39.36	431	4310
39.38	431	4310
39.4	431	4310
39.42	431	4310
39.44	431	4310
39.46	431	4310
39.48	431	4310
39.5	432	4320
39.52	432	4320
39.54	432	4320
39.56	432	4320
39.58	432	4320
39.6	432	4320
39.62	433	4330
39.64	433	4330
39.66	433	4330
39.68	433	4330
39.7	433	4330
39.72	433	4330
39.74	434	4340
39.76	434	4340
39.78	434	4340
39.8	434	4340
39.82	434	4340
39.84	435	4350
39.86	435	4350
39.88	435	4350
39.9	436	4360
39.92	436	4360
39.94	436	4360
39.96	436	4360
39.98	436	4360
40	437	4370
40.02	437	4370
40.04	437	4370
40.06	438	4380
40.08	438	4380
40.1	438	4380
40.12	439	4390
40.14	439	4390
40.16	439	4390
40.18	440	4400
40.2	440	4400
40.22	440	4400
40.24	441	4410
40.26	441	4410
40.28	441	4410
40.3	441	4410
40.32	442	4420
40.34	442	4420
40.36	442	4420
40.38	443	4430
40.4	443	4430
40.42	443	4430
40.44	444	4440
40.46	444	4440
40.48	444	4440
40.5	445	4450
40.52	445	4450
40.54	445	4450
40.56	445	4450
40.58	446	4460
40.6	446	4460
40.62	446	4460
40.64	446	4460
40.66	447	4470
40.68	447	4470
40.7	447	4470
40.72	448	4480
40.74	448	4480
40.76	448	4480
40.78	449	4490
40.8	449	4490
40.82	449	4490
40.84	450	4500
40.86	450	4500
40.88	451	4510
40.9	451	4510
40.92	451	4510
40.94	452	4520
40.96	452	4520
40.98	453	4530
41	453	4530
41.02	453	4530
41.04	454	4540
41.06	454	4540
41.08	454	4540
41.1	455	4550
41.12	455	4550
41.14	456	4560
41.16	456	4560
41.18	457	4570
41.2	457	4570
41.22	457	4570
41.24	458	4580
41.26	458	4580
41.28	459	4590
41.3	459	4590
41.32	460	4600
41.34	460	4600
41.36	460	4600
41.38	461	4610
41.4	461	4610
41.42	462	4620
41.44	462	4620
41.46	462	4620
41.48	463	4630
41.5	463	4630
41.52	464	4640
41.54	464	4640
41.56	464	4640
41.58	465	4650
41.6	465	4650
41.62	465	4650
41.64	466	4660
41.66	466	4660
41.68	466	4660
41.7	467	4670
41.72	467	4670
41.74	467	4670
41.76	468	4680
41.78	468	4680
41.8	468	4680
41.82	469	4690
41.84	469	4690
41.86	469	4690
41.88	470	4700
41.9	470	4700
41.92	470	4700
41.94	471	4710
41.96	471	4710
41.98	472	4720
42	472	4720
42.02	472	4720
42.04	472	4720
42.06	473	4730
42.08	473	4730
42.1	474	4740
42.12	474	4740
42.14	475	4750
42.16	475	4750
42.18	475	4750
42.2	476	4760
42.22	476	4760
42.24	477	4770
42.26	477	4770
42.28	477	4770
42.3	478	4780
42.32	478	4780
42.34	479	4790
42.36	479	4790
42.38	479	4790
42.4	480	4800
42.42	480	4800
42.44	480	4800
42.46	481	4810
42.48	481	4810
42.5	481	4810
42.52	482	4820
42.54	482	4820
42.56	482	4820
42.58	483	4830
42.6	483	4830
42.62	483	4830
42.64	484	4840
42.66	484	4840
42.68	484	4840
42.7	485	4850
42.72	485	4850
42.74	485	4850
42.76	485	4850
42.78	485	4850
42.8	486	4860
42.82	486	4860
42.84	486	4860
42.86	486	4860
42.88	487	4870
42.9	487	4870
42.92	487	4870
42.94	487	4870
42.96	488	4880
42.98	488	4880
43	488	4880
43.02	489	4890
43.04	489	4890
43.06	489	4890
43.08	489	4890
43.1	490	4900
43.12	490	4900
43.14	490	4900
43.16	491	4910
43.18	491	4910
43.2	491	4910
43.22	492	4920
43.24	492	4920
43.26	492	4920
43.28	492	4920
43.3	493	4930
43.32	493	4930
43.34	493	4930
43.36	494	4940
43.38	494	4940
43.4	494	4940
43.42	495	4950
43.44	495	4950
43.46	495	4950
43.48	495	4950
43.5	496	4960
43.52	496	4960
43.54	496	4960
43.56	497	4970
43.58	497	4970
43.6	497	4970
43.62	497	4970
43.64	498	4980
43.66	498	4980
43.68	498	4980
43.7	498	4980
43.72	499	4990
43.74	499	4990
43.76	499	4990
43.78	499	4990
43.8	500	5000
43.82	500	5000
43.84	500	5000
43.86	500	5000
43.88	501	5010
43.9	501	5010
43.92	501	5010
43.94	501	5010
43.96	501	5010
43.98	502	5020
44	502	5020
44.02	502	5020
44.04	502	5020
44.06	502	5020
44.08	502	5020
44.1	503	5030
44.12	503	5030
44.14	503	5030
44.16	503	5030
44.18	504	5040
44.2	504	5040
44.22	504	5040
44.24	504	5040
44.26	505	5050
44.28	505	5050
44.3	505	5050
44.32	505	5050
44.34	505	5050
44.36	506	5060
44.38	506	5060
44.4	506	5060
44.42	507	5070
44.44	507	5070
44.46	508	5080
44.48	508	5080
44.5	508	5080
44.52	508	5080
44.54	509	5090
44.56	509	5090
44.58	509	5090
44.6	510	5100
44.62	510	5100
44.64	511	5110
44.66	511	5110
44.68	511	5110
44.7	512	5120
44.72	512	5120
44.74	513	5130
44.76	513	5130
44.78	513	5130
44.8	514	5140
44.82	514	5140
44.84	514	5140
44.86	515	5150
44.88	515	5150
44.9	515	5150
44.92	516	5160
44.94	516	5160
44.96	516	5160
44.98	517	5170
45	517	5170
45.02	517	5170
45.04	518	5180
45.06	518	5180
45.08	518	5180
45.1	518	5180
45.12	519	5190
45.14	519	5190
45.16	520	5200
45.18	520	5200
45.2	520	5200
45.22	521	5210
45.24	521	5210
45.26	521	5210
45.28	522	5220
45.3	522	5220
45.32	523	5230
45.34	523	5230
45.36	523	5230
45.38	524	5240
45.4	524	5240
45.42	525	5250
45.44	525	5250
45.46	525	5250
45.48	526	5260
45.5	526	5260
45.52	526	5260
45.54	527	5270
45.56	527	5270
45.58	528	5280
45.6	528	5280
45.62	529	5290
45.64	529	5290
45.66	529	5290
45.68	530	5300
45.7	530	5300
45.72	531	5310
45.74	531	5310
45.76	532	5320
45.78	532	5320
45.8	532	5320
45.82	533	5330
45.84	533	5330
45.86	533	5330
45.88	534	5340
45.9	534	5340
45.92	535	5350
45.94	535	5350
45.96	535	5350
45.98	536	5360
46	536	5360
46.02	536	5360
46.04	537	5370
46.06	537	5370
46.08	537	5370
46.1	537	5370
46.12	538	5380
46.14	538	5380
46.16	538	5380
46.18	539	5390
46.2	539	5390
46.22	539	5390
46.24	539	5390
46.26	540	5400
46.28	540	5400
46.3	540	5400
46.32	541	5410
46.34	541	5410
46.36	541	5410
46.38	541	5410
46.4	542	5420
46.42	542	5420
46.44	542	5420
46.46	543	5430
46.48	543	5430
46.5	544	5440
46.52	544	5440
46.54	544	5440
46.56	544	5440
46.58	545	5450
46.6	545	5450
46.62	545	5450
46.64	546	5460
46.66	546	5460
46.68	547	5470
46.7	547	5470
46.72	547	5470
46.74	548	5480
46.76	548	5480
46.78	548	5480
46.8	549	5490
46.82	549	5490
46.84	549	5490
46.86	550	5500
46.88	550	5500
46.9	550	5500
46.92	551	5510
46.94	551	5510
46.96	551	5510
46.98	552	5520
47	552	5520
47.02	552	5520
47.04	552	5520
47.06	553	5530
47.08	553	5530
47.1	553	5530
47.12	553	5530
47.14	554	5540
47.16	554	5540
47.18	554	5540
47.2	554	5540
47.22	555	5550
47.24	555	5550
47.26	555	5550
47.28	555	5550
47.3	556	5560
47.32	556	5560
47.34	556	5560
47.36	556	5560
47.38	556	5560
47.4	557	5570
47.42	557	5570
47.44	557	5570
47.46	557	5570
47.48	558	5580
47.5	558	5580
47.52	558	5580
47.54	559	5590
47.56	559	5590
47.58	559	5590
47.6	559	5590
47.62	560	5600
47.64	560	5600
47.66	560	5600
47.68	561	5610
47.7	561	5610
47.72	561	5610
47.74	561	5610
47.76	562	5620
47.78	562	5620
47.8	562	5620
47.85	563	5630
47.87	563	5630
47.88	564	5640
47.9	564	5640
47.91	564	5640
47.93	564	5640
47.94	564	5640
47.96	565	5650
47.98	565	5650
48	565	5650
48.02	566	5660
48.04	566	5660
48.06	566	5660
48.08	567	5670
48.1	567	5670
48.12	567	5670
48.14	568	5680
48.16	568	5680
48.18	568	5680
48.2	569	5690
48.22	569	5690
48.24	569	5690
48.26	569	5690
48.28	570	5700
48.3	570	5700
48.32	570	5700
48.34	571	5710
48.36	571	5710
48.38	571	5710
48.4	571	5710
48.42	572	5720
48.44	572	5720
48.46	572	5720
48.48	572	5720
48.5	573	5730
48.52	573	5730
48.54	573	5730
48.56	573	5730
48.58	574	5740
48.6	574	5740
48.62	574	5740
48.64	574	5740
48.66	575	5750
48.68	575	5750
48.7	575	5750
48.72	576	5760
48.74	576	5760
48.76	576	5760
48.78	577	5770
48.8	577	5770
48.82	577	5770
48.84	577	5770
48.86	578	5780
48.88	578	5780
48.9	579	5790
48.92	579	5790
48.94	579	5790
48.96	580	5800
48.98	580	5800
49	580	5800
49.02	581	5810
49.04	581	5810
49.06	582	5820
49.08	582	5820
49.1	582	5820
49.12	583	5830
49.14	583	5830
49.16	584	5840
49.18	584	5840
49.2	585	5850
49.22	585	5850
49.24	585	5850
49.26	586	5860
49.28	586	5860
49.3	586	5860
49.32	587	5870
49.34	587	5870
49.36	587	5870
49.38	588	5880
49.4	588	5880
49.42	588	5880
49.44	589	5890
49.46	589	5890
49.48	589	5890
49.5	590	5900
49.52	590	5900
49.54	590	5900
49.56	591	5910
49.58	591	5910
49.6	591	5910
49.62	592	5920
49.64	592	5920
49.66	592	5920
49.68	593	5930
49.7	593	5930
49.72	593	5930
49.74	594	5940
49.76	594	5940
49.78	595	5950
49.8	595	5950
49.82	595	5950
49.84	596	5960
49.86	596	5960
49.88	597	5970
49.9	597	5970
49.92	597	5970
49.94	598	5980
49.96	598	5980
49.98	598	5980
50	599	5990
50.02	599	5990
50.04	599	5990
50.06	600	6000
50.08	600	6000
50.1	601	6010
50.12	601	6010
50.14	601	6010
50.16	602	6020
50.18	602	6020
50.2	603	6030
50.22	603	6030
50.24	603	6030
50.26	604	6040
50.28	604	6040
50.3	604	6040
50.32	605	6050
50.34	605	6050
50.36	605	6050
50.38	606	6060
50.4	606	6060
50.42	606	6060
50.44	607	6070
50.46	607	6070
50.48	607	6070
50.5	607	6070
50.52	608	6080
50.54	608	6080
50.56	608	6080
50.58	609	6090
50.6	609	6090
50.62	609	6090
50.64	609	6090
50.66	609	6090
50.68	610	6100
50.7	610	6100
50.72	610	6100
50.74	610	6100
50.76	611	6110
50.78	611	6110
50.8	611	6110
50.82	611	6110
50.84	612	6120
50.86	612	6120
50.88	612	6120
50.9	612	6120
50.92	613	6130
50.94	613	6130
50.96	613	6130
50.98	613	6130
51	614	6140
51.02	614	6140
51.04	614	6140
51.06	615	6150
51.08	615	6150
51.1	615	6150
51.12	616	6160
51.14	616	6160
51.16	616	6160
51.18	616	6160
51.2	617	6170
51.22	617	6170
51.24	617	6170
51.26	618	6180
51.28	618	6180
51.3	618	6180
51.32	619	6190
51.34	619	6190
51.36	620	6200
51.38	620	6200
51.4	620	6200
51.42	621	6210
51.44	621	6210
51.46	621	6210
51.48	621	6210
51.5	622	6220
51.52	622	6220
51.54	622	6220
51.56	623	6230
51.58	623	6230
51.6	623	6230
51.62	623	6230
51.64	624	6240
51.66	624	6240
51.68	624	6240
51.7	624	6240
51.72	625	6250
51.74	625	6250
51.76	625	6250
51.78	625	6250
51.8	625	6250
51.82	626	6260
51.84	626	6260
51.86	626	6260
51.88	626	6260
51.9	627	6270
51.92	627	6270
51.94	627	6270
51.96	628	6280
51.98	628	6280
52	628	6280
52.02	629	6290
52.04	629	6290
52.06	629	6290
52.08	629	6290
52.1	630	6300
52.12	630	6300
52.14	630	6300
52.16	631	6310
52.18	631	6310
52.2	631	6310
52.22	631	6310
52.24	632	6320
52.26	632	6320
52.28	633	6330
52.3	633	6330
52.32	633	6330
52.34	634	6340
52.36	634	6340
52.38	634	6340
52.4	635	6350
52.42	635	6350
52.44	635	6350
52.46	636	6360
52.48	636	6360
52.5	636	6360
52.52	637	6370
52.54	637	6370
52.56	638	6380
52.58	638	6380
52.6	638	6380
52.62	639	6390
52.64	639	6390
52.66	639	6390
52.68	640	6400
52.7	640	6400
52.72	640	6400
52.74	641	6410
52.76	641	6410
52.78	641	6410
52.8	641	6410
52.82	642	6420
52.84	642	6420
52.86	642	6420
52.88	643	6430
52.9	643	6430
52.92	643	6430
52.94	644	6440
52.96	644	6440
52.98	644	6440
53	645	6450
53.02	645	6450
53.04	645	6450
53.06	645	6450
53.08	646	6460
53.1	646	6460
53.12	646	6460
53.14	647	6470
53.16	647	6470
53.18	647	6470
53.2	648	6480
53.22	648	6480
53.24	648	6480
53.26	649	6490
53.28	649	6490
53.3	649	6490
53.32	650	6500
53.34	650	6500
53.36	650	6500
53.38	651	6510
53.4	651	6510
53.42	652	6520
53.44	652	6520
53.46	652	6520
53.48	653	6530
53.5	653	6530
53.52	653	6530
53.54	654	6540
53.56	654	6540
53.58	655	6550
53.6	655	6550
53.62	655	6550
53.64	656	6560
53.66	656	6560
53.68	657	6570
53.7	657	6570
53.72	657	6570
53.74	658	6580
53.76	658	6580
53.78	658	6580
53.8	659	6590
53.82	659	6590
53.84	659	6590
53.86	660	6600
53.88	660	6600
53.9	660	6600
53.92	660	6600
53.94	661	6610
53.96	661	6610
53.98	661	6610
54	662	6620
54.02	662	6620
54.04	662	6620
54.06	663	6630
54.08	663	6630
54.1	663	6630
54.12	664	6640
54.14	664	6640
54.16	664	6640
54.18	665	6650
54.2	665	6650
54.22	665	6650
54.24	666	6660
54.26	666	6660
54.28	666	6660
54.3	667	6670
54.32	667	6670
54.34	667	6670
54.36	668	6680
54.38	668	6680
54.4	668	6680
54.42	669	6690
54.44	669	6690
54.46	669	6690
54.48	670	6700
54.5	670	6700
54.52	670	6700
54.54	671	6710
54.56	671	6710
54.58	671	6710
54.6	672	6720
54.62	672	6720
54.64	672	6720
54.66	673	6730
54.68	673	6730
54.7	673	6730
54.72	674	6740
54.74	674	6740
54.76	674	6740
54.78	675	6750
54.8	675	6750
54.82	675	6750
54.84	676	6760
54.86	676	6760
54.88	676	6760
54.9	677	6770
54.92	677	6770
54.94	677	6770
54.96	677	6770
54.98	678	6780
55	678	6780
55.02	678	6780
55.04	678	6780
55.06	679	6790
55.08	679	6790
55.1	679	6790
55.12	679	6790
55.14	679	6790
55.16	680	6800
55.18	680	6800
55.2	680	6800
55.22	680	6800
55.24	681	6810
55.26	681	6810
55.28	681	6810
55.3	681	6810
55.32	682	6820
55.34	682	6820
55.36	682	6820
55.38	682	6820
55.4	683	6830
55.42	683	6830
55.44	683	6830
55.46	683	6830
55.48	684	6840
55.5	684	6840
55.52	684	6840
55.54	684	6840
55.56	685	6850
55.58	685	6850
55.6	685	6850
55.62	686	6860
55.64	686	6860
55.66	686	6860
55.68	686	6860
55.7	687	6870
55.72	687	6870
55.74	688	6880
55.76	688	6880
55.78	688	6880
55.8	688	6880
55.82	689	6890
55.84	689	6890
55.86	690	6900
55.88	690	6900
55.9	690	6900
55.92	690	6900
55.94	691	6910
55.96	691	6910
55.98	691	6910
56	692	6920
56.02	692	6920
56.04	693	6930
56.06	693	6930
56.08	693	6930
56.1	693	6930
56.12	694	6940
56.14	694	6940
56.16	694	6940
56.18	695	6950
56.2	695	6950
56.22	695	6950
56.24	695	6950
56.26	696	6960
56.28	696	6960
56.3	696	6960
56.32	696	6960
56.34	697	6970
56.36	697	6970
56.38	697	6970
56.4	698	6980
56.42	698	6980
56.44	698	6980
56.46	699	6990
56.48	699	6990
56.5	699	6990
56.52	700	7000
56.54	700	7000
56.56	700	7000
56.58	701	7010
56.61	701	7010
56.63	701	7010
56.64	701	7010
56.66	702	7020
56.68	702	7020
56.7	703	7030
56.72	703	7030
56.74	703	7030
56.76	704	7040
56.78	704	7040
56.8	704	7040
56.82	705	7050
56.84	705	7050
56.87	706	7060
56.88	706	7060
56.9	706	7060
56.92	707	7070
56.94	707	7070
56.96	707	7070
56.98	708	7080
57	708	7080
57.02	709	7090
57.04	709	7090
57.06	709	7090
57.08	710	7100
57.1	710	7100
57.12	710	7100
57.14	711	7110
57.16	711	7110
57.18	711	7110
57.2	712	7120
57.22	712	7120
57.24	712	7120
57.26	713	7130
57.28	713	7130
57.3	713	7130
57.32	714	7140
57.34	714	7140
57.36	714	7140
57.38	715	7150
57.4	715	7150
57.42	715	7150
57.44	715	7150
57.46	716	7160
57.48	716	7160
57.5	716	7160
57.52	717	7170
57.54	717	7170
57.56	717	7170
57.58	718	7180
57.6	718	7180
57.62	718	7180
57.64	718	7180
57.66	719	7190
57.68	719	7190
57.7	719	7190
57.72	720	7200
57.74	720	7200
57.76	720	7200
57.78	721	7210
57.8	721	7210
57.82	721	7210
57.84	722	7220
57.86	722	7220
57.88	722	7220
57.9	723	7230
57.92	723	7230
57.94	724	7240
57.96	724	7240
57.98	724	7240
58	725	7250
58.02	725	7250
58.04	725	7250
58.06	726	7260
58.08	726	7260
58.1	726	7260
58.12	727	7270
58.14	727	7270
58.16	727	7270
58.18	728	7280
58.2	728	7280
58.22	729	7290
58.24	729	7290
58.26	729	7290
58.28	730	7300
58.3	730	7300
58.32	730	7300
58.34	731	7310
58.36	731	7310
58.38	731	7310
58.4	731	7310
58.42	732	7320
58.44	732	7320
58.46	732	7320
58.48	732	7320
58.5	733	7330
58.52	733	7330
58.54	733	7330
58.56	733	7330
58.58	734	7340
58.6	734	7340
58.62	734	7340
58.64	735	7350
58.66	735	7350
58.68	735	7350
58.7	736	7360
58.72	736	7360
58.74	736	7360
58.76	737	7370
58.78	737	7370
58.8	737	7370
58.82	737	7370
58.84	738	7380
58.86	738	7380
58.88	738	7380
58.9	739	7390
58.92	739	7390
58.94	739	7390
58.96	740	7400
58.98	740	7400
59	740	7400
59.02	741	7410
59.04	741	7410
59.06	741	7410
59.08	742	7420
59.1	742	7420
59.12	742	7420
59.14	743	7430
59.16	743	7430
59.18	743	7430
59.2	744	7440
59.22	744	7440
59.24	744	7440
59.26	745	7450
59.28	745	7450
59.3	745	7450
59.32	746	7460
59.34	746	7460
59.36	746	7460
59.38	746	7460
59.4	747	7470
59.42	747	7470
59.44	747	7470
59.46	748	7480
59.48	748	7480
59.5	748	7480
59.52	748	7480
59.54	749	7490
59.56	749	7490
59.58	749	7490
59.6	749	7490
59.62	750	7500
59.64	750	7500
59.66	750	7500
59.68	750	7500
59.7	751	7510
59.72	751	7510
59.74	751	7510
59.76	751	7510
59.78	752	7520
59.8	752	7520
59.82	752	7520
59.84	752	7520
59.86	753	7530
59.88	753	7530
59.9	753	7530
59.92	753	7530
59.94	754	7540
59.96	754	7540
59.98	754	7540
60	754	7540
60.02	755	7550
60.04	755	7550
60.06	755	7550
60.08	755	7550
60.1	756	7560
60.12	756	7560
60.14	756	7560
60.16	757	7570
60.18	757	7570
60.2	757	7570
60.22	758	7580
60.24	758	7580
60.26	758	7580
60.28	759	7590
60.3	759	7590
60.32	760	7600
60.34	760	7600
60.36	760	7600
60.38	760	7600
60.4	761	7610
60.42	761	7610
60.44	762	7620
60.46	762	7620
60.48	762	7620
60.5	763	7630
60.52	763	7630
60.54	763	7630
60.56	764	7640
60.58	764	7640
60.6	764	7640
60.62	765	7650
60.64	765	7650
60.66	765	7650
60.68	765	7650
60.7	766	7660
60.72	766	7660
60.74	766	7660
60.76	767	7670
60.78	767	7670
60.8	767	7670
60.82	767	7670
60.84	768	7680
60.86	768	7680
60.88	768	7680
60.9	769	7690
60.92	769	7690
60.94	769	7690
60.96	770	7700
60.98	770	7700
61	770	7700
61.02	771	7710
61.04	771	7710
61.06	771	7710
61.08	772	7720
61.1	772	7720
61.12	772	7720
61.14	773	7730
61.16	773	7730
61.18	773	7730
61.2	774	7740
61.22	774	7740
61.24	775	7750
61.26	775	7750
61.28	775	7750
61.3	776	7760
61.32	776	7760
61.34	776	7760
61.36	777	7770
61.38	777	7770
61.4	778	7780
61.42	778	7780
61.44	778	7780
61.46	779	7790
61.48	779	7790
61.5	779	7790
61.52	780	7800
61.54	780	7800
61.56	780	7800
61.58	781	7810
61.6	781	7810
61.62	782	7820
61.64	782	7820
61.66	782	7820
61.68	783	7830
61.7	783	7830
61.72	783	7830
61.74	783	7830
61.76	784	7840
61.78	784	7840
61.8	784	7840
61.82	785	7850
61.84	785	7850
61.86	785	7850
61.88	786	7860
61.9	786	7860
61.92	786	7860
61.94	786	7860
61.96	787	7870
61.98	787	7870
62	787	7870
62.02	788	7880
62.04	788	7880
62.06	788	7880
62.08	789	7890
62.1	789	7890
62.12	789	7890
62.14	789	7890
62.16	790	7900
62.18	790	7900
62.2	790	7900
62.22	791	7910
62.24	791	7910
62.26	791	7910
62.28	791	7910
62.3	792	7920
62.32	792	7920
62.34	792	7920
62.36	793	7930
62.38	793	7930
62.4	793	7930
62.42	794	7940
62.44	794	7940
62.46	795	7950
62.48	795	7950
62.5	795	7950
62.52	796	7960
62.54	796	7960
62.56	796	7960
62.58	797	7970
62.6	797	7970
62.62	797	7970
62.64	798	7980
62.66	798	7980
62.68	798	7980
62.7	799	7990
62.72	799	7990
62.74	799	7990
62.76	800	8000
62.78	800	8000
62.8	800	8000
62.82	801	8010
62.84	801	8010
62.86	801	8010
62.9	802	8020
62.92	802	8020
62.94	802	8020
62.95	802	8020
62.97	803	8030
62.98	803	8030
63	803	8030
63.02	803	8030
63.04	804	8040
63.06	804	8040
63.08	804	8040
63.1	805	8050
63.12	805	8050
63.14	805	8050
63.16	805	8050
63.18	806	8060
63.2	806	8060
63.22	806	8060
63.24	807	8070
63.26	807	8070
63.28	807	8070
63.3	807	8070
63.32	808	8080
63.34	808	8080
63.36	808	8080
63.38	809	8090
63.4	809	8090
63.42	809	8090
63.44	810	8100
63.46	810	8100
63.48	810	8100
63.5	811	8110
63.52	811	8110
63.54	811	8110
63.56	812	8120
63.58	812	8120
63.6	812	8120
63.62	813	8130
63.64	813	8130
63.66	813	8130
63.68	814	8140
63.7	814	8140
63.72	814	8140
63.74	815	8150
63.76	815	8150
63.78	815	8150
63.8	816	8160
63.82	816	8160
63.84	816	8160
63.86	816	8160
63.88	817	8170
63.9	817	8170
63.92	817	8170
63.94	818	8180
63.96	818	8180
63.98	818	8180
64	818	8180
64.02	819	8190
64.04	819	8190
64.06	819	8190
64.08	820	8200
64.1	820	8200
64.12	820	8200
64.14	820	8200
64.16	821	8210
64.18	821	8210
64.2	821	8210
64.22	821	8210
64.24	822	8220
64.26	822	8220
64.28	822	8220
64.3	822	8220
64.32	823	8230
64.34	823	8230
64.36	823	8230
64.38	823	8230
64.4	823	8230
64.42	824	8240
64.44	824	8240
64.46	824	8240
64.48	825	8250
64.5	825	8250
64.52	825	8250
64.54	825	8250
64.56	826	8260
64.58	826	8260
64.6	826	8260
64.62	827	8270
64.64	827	8270
64.66	827	8270
64.68	828	8280
64.7	828	8280
64.72	828	8280
64.74	829	8290
64.76	829	8290
64.78	829	8290
64.8	829	8290
64.82	830	8300
64.84	830	8300
64.86	831	8310
64.88	831	8310
64.9	831	8310
64.92	832	8320
64.94	832	8320
64.96	832	8320
64.98	833	8330
65	833	8330
65.02	833	8330
65.04	834	8340
65.06	834	8340
65.08	834	8340
65.1	835	8350
65.12	835	8350
65.14	835	8350
65.16	835	8350
65.18	836	8360
65.2	836	8360
65.22	836	8360
65.24	837	8370
65.26	837	8370
65.28	837	8370
65.3	838	8380
65.32	838	8380
65.34	838	8380
65.36	839	8390
65.38	839	8390
65.4	839	8390
65.42	840	8400
65.44	840	8400
65.46	840	8400
65.48	840	8400
65.5	841	8410
65.52	841	8410
65.54	841	8410
65.56	841	8410
65.58	842	8420
65.6	842	8420
65.62	842	8420
65.64	843	8430
65.66	843	8430
65.68	844	8440
65.7	844	8440
65.72	844	8440
65.74	845	8450
65.76	845	8450
65.78	845	8450
65.8	846	8460
65.82	846	8460
65.84	846	8460
65.86	847	8470
65.88	847	8470
65.9	847	8470
65.92	848	8480
65.94	848	8480
65.96	849	8490
65.98	849	8490
66	849	8490
66.02	850	8500
66.04	850	8500
66.06	850	8500
66.08	851	8510
66.1	851	8510
66.12	851	8510
66.14	852	8520
66.16	852	8520
66.18	852	8520
66.2	853	8530
66.22	853	8530
66.24	853	8530
66.26	854	8540
66.28	854	8540
66.3	854	8540
66.32	855	8550
66.34	855	8550
66.36	855	8550
66.38	855	8550
66.4	856	8560
66.42	856	8560
66.44	856	8560
66.46	857	8570
66.48	857	8570
66.5	857	8570
66.52	857	8570
66.54	858	8580
66.56	858	8580
66.58	858	8580
66.6	859	8590
66.62	859	8590
66.64	859	8590
66.66	859	8590
66.68	860	8600
66.7	860	8600
66.72	860	8600
66.74	861	8610
66.76	861	8610
66.78	861	8610
66.8	862	8620
66.82	862	8620
66.84	862	8620
66.86	862	8620
66.88	863	8630
66.9	863	8630
66.92	863	8630
66.94	864	8640
66.96	864	8640
66.98	864	8640
67	865	8650
67.02	865	8650
67.04	865	8650
67.06	866	8660
67.08	866	8660
67.1	867	8670
67.12	867	8670
67.14	867	8670
67.16	868	8680
67.18	868	8680
67.2	868	8680
67.22	869	8690
67.24	869	8690
67.26	869	8690
67.28	870	8700
67.3	870	8700
67.32	870	8700
67.34	871	8710
67.36	871	8710
67.38	871	8710
67.4	871	8710
67.42	872	8720
67.44	872	8720
67.46	872	8720
67.48	873	8730
67.5	873	8730
67.52	873	8730
67.54	874	8740
67.56	874	8740
67.58	874	8740
67.6	875	8750
67.62	875	8750
67.64	875	8750
67.66	875	8750
67.68	876	8760
67.7	876	8760
67.72	876	8760
67.74	876	8760
67.76	877	8770
67.78	877	8770
67.8	877	8770
67.82	877	8770
67.84	878	8780
67.86	878	8780
67.88	878	8780
67.9	879	8790
67.92	879	8790
67.94	880	8800
67.96	880	8800
67.98	880	8800
68	880	8800
68.02	881	8810
68.04	881	8810
68.06	881	8810
68.08	882	8820
68.1	882	8820
68.12	882	8820
68.14	883	8830
68.16	883	8830
68.18	883	8830
68.2	884	8840
68.22	884	8840
68.24	885	8850
68.26	885	8850
68.28	885	8850
68.3	885	8850
68.32	886	8860
68.34	886	8860
68.36	886	8860
68.38	887	8870
68.4	887	8870
68.42	887	8870
68.44	888	8880
68.46	888	8880
68.48	888	8880
68.5	888	8880
68.52	889	8890
68.54	889	8890
68.56	889	8890
68.58	890	8900
68.6	890	8900
68.62	890	8900
68.64	890	8900
68.66	891	8910
68.68	891	8910
68.7	891	8910
68.72	891	8910
68.74	892	8920
68.76	892	8920
68.78	892	8920
68.8	892	8920
68.82	893	8930
68.84	893	8930
68.86	893	8930
68.88	893	8930
68.9	894	8940
68.92	894	8940
68.94	894	8940
68.96	894	8940
68.98	895	8950
69	895	8950
69.02	895	8950
69.04	895	8950
69.06	896	8960
69.08	896	8960
69.1	896	8960
69.12	897	8970
69.14	897	8970
69.16	897	8970
69.18	897	8970
69.2	898	8980
69.22	898	8980
69.24	898	8980
69.26	899	8990
69.28	899	8990
69.3	899	8990
69.32	900	9000
69.34	900	9000
69.36	900	9000
69.38	901	9010
69.4	901	9010
69.42	901	9010
69.44	901	9010
69.46	902	9020
69.48	902	9020
69.5	902	9020
69.52	903	9030
69.54	903	9030
69.56	903	9030
69.58	904	9040
69.6	904	9040
69.62	904	9040
69.64	904	9040
69.66	905	9050
69.68	905	9050
69.7	905	9050
69.72	906	9060
69.74	906	9060
69.76	906	9060
69.78	906	9060
69.8	907	9070
69.82	907	9070
69.84	907	9070
69.86	908	9080
69.88	908	9080
69.9	908	9080
69.92	909	9090
69.94	909	9090
69.96	909	9090
69.98	909	9090
70	909	9090
70.02	910	9100
70.04	910	9100
70.06	910	9100
70.08	910	9100
70.1	911	9110
70.12	911	9110
70.14	911	9110
70.16	911	9110
70.18	912	9120
70.2	912	9120
70.22	912	9120
70.24	913	9130
70.26	913	9130
70.28	913	9130
70.3	913	9130
70.32	914	9140
70.34	914	9140
70.36	914	9140
70.38	914	9140
70.4	915	9150
70.42	915	9150
70.44	916	9160
70.46	916	9160
70.48	916	9160
70.5	917	9170
70.52	917	9170
70.54	917	9170
70.56	917	9170
70.58	918	9180
70.6	918	9180
70.62	918	9180
70.64	919	9190
70.66	919	9190
70.68	919	9190
70.7	920	9200
70.72	920	9200
70.74	920	9200
70.76	921	9210
70.78	921	9210
70.8	921	9210
70.82	922	9220
70.84	922	9220
70.86	922	9220
70.88	922	9220
70.9	922	9220
70.92	923	9230
70.94	923	9230
70.96	923	9230
70.98	924	9240
71	924	9240
71.02	924	9240
71.04	924	9240
71.06	925	9250
71.08	925	9250
71.1	925	9250
71.12	925	9250
71.14	926	9260
71.16	926	9260
71.18	926	9260
71.2	926	9260
71.22	927	9270
71.24	927	9270
71.26	927	9270
71.28	927	9270
71.3	927	9270
71.32	928	9280
71.34	928	9280
71.36	928	9280
71.38	928	9280
71.4	929	9290
71.42	929	9290
71.44	929	9290
71.46	929	9290
71.48	930	9300
71.5	930	9300
71.52	930	9300
71.54	930	9300
71.56	931	9310
71.58	931	9310
71.6	931	9310
71.62	932	9320
71.64	932	9320
71.66	932	9320
71.68	932	9320
71.7	933	9330
71.72	933	9330
71.74	933	9330
71.76	934	9340
71.78	934	9340
71.8	934	9340
71.82	934	9340
71.84	935	9350
71.86	935	9350
71.88	935	9350
71.9	935	9350
71.92	936	9360
71.94	936	9360
71.96	936	9360
71.98	937	9370
72	937	9370
72.02	937	9370
72.04	937	9370
72.06	937	9370
72.08	938	9380
72.1	938	9380
72.12	938	9380
72.14	938	9380
72.16	939	9390
72.18	939	9390
72.2	939	9390
72.22	939	9390
72.24	940	9400
72.26	940	9400
72.28	940	9400
72.3	940	9400
72.32	940	9400
72.34	940	9400
72.36	940	9400
72.38	941	9410
72.4	941	9410
72.42	941	9410
72.44	941	9410
72.46	941	9410
72.48	941	9410
72.5	942	9420
72.52	942	9420
72.54	942	9420
72.56	942	9420
72.58	942	9420
72.6	942	9420
72.62	943	9430
72.64	943	9430
72.66	943	9430
72.68	943	9430
72.7	943	9430
72.72	943	9430
72.75	943	9430
72.76	944	9440
72.78	944	9440
72.8	944	9440
72.82	944	9440
72.84	944	9440
72.86	944	9440
72.88	945	9450
72.9	945	9450
72.92	945	9450
72.94	945	9450
72.96	945	9450
72.98	945	9450
73	945	9450
73.02	945	9450
73.04	946	9460
73.06	946	9460
73.08	946	9460
73.1	946	9460
73.12	946	9460
73.14	946	9460
73.16	946	9460
73.18	946	9460
73.2	946	9460
73.22	946	9460
73.24	947	9470
73.26	947	9470
73.28	947	9470
73.3	947	9470
73.32	947	9470
73.34	947	9470
73.36	947	9470
73.38	947	9470
73.4	947	9470
73.42	947	9470
73.44	947	9470
73.46	947	9470
73.48	947	9470
73.5	947	9470
73.52	947	9470
73.54	947	9470
73.56	947	9470
73.58	947	9470
73.6	947	9470
73.62	947	9470
73.64	947	9470
73.66	947	9470
73.68	947	9470
73.7	947	9470
73.72	947	9470
73.74	947	9470
73.76	948	9480
73.78	948	9480
73.8	948	9480
73.82	948	9480
73.84	948	9480
73.86	948	9480
73.88	949	9490
73.9	949	9490
73.92	949	9490
73.94	949	9490
73.96	949	9490
73.98	949	9490
74	950	9500
74.02	950	9500
74.04	950	9500
74.06	950	9500
74.08	950	9500
74.1	951	9510
74.12	951	9510
74.14	951	9510
74.16	951	9510
74.18	952	9520
74.2	952	9520
74.22	952	9520
74.24	952	9520
74.26	953	9530
74.28	953	9530
74.3	953	9530
74.32	953	9530
74.34	954	9540
74.36	954	9540
74.38	954	9540
74.4	954	9540
74.42	954	9540
74.44	955	9550
74.46	955	9550
74.48	955	9550
74.5	956	9560
74.52	956	9560
74.54	956	9560
74.56	957	9570
74.58	957	9570
74.6	957	9570
74.62	957	9570
74.64	958	9580
74.66	958	9580
74.68	958	9580
74.7	959	9590
74.72	959	9590
74.74	959	9590
74.76	960	9600
74.78	960	9600
74.8	961	9610
74.82	961	9610
74.84	961	9610
74.86	962	9620
74.88	962	9620
74.9	963	9630
74.92	963	9630
74.94	963	9630
74.96	964	9640
74.98	964	9640
75	965	9650
75.02	965	9650
75.04	966	9660
75.06	966	9660
75.08	967	9670
75.1	967	9670
75.12	968	9680
75.14	968	9680
75.16	969	9690
75.18	969	9690
75.2	970	9700
75.22	970	9700
75.24	971	9710
75.26	971	9710
75.28	972	9720
75.3	972	9720
75.32	973	9730
75.34	973	9730
75.36	974	9740
75.38	974	9740
75.4	975	9750
75.42	976	9760
75.44	976	9760
75.46	977	9770
75.48	977	9770
75.5	978	9780
75.52	978	9780
75.54	979	9790
75.56	979	9790
75.58	980	9800
75.6	981	9810
75.62	981	9810
75.64	982	9820
75.66	982	9820
75.68	983	9830
75.7	983	9830
75.72	984	9840
75.74	985	9850
75.76	985	9850
75.78	986	9860
75.8	987	9870
75.82	987	9870
75.84	988	9880
75.86	989	9890
75.88	989	9890
75.9	990	9900
75.92	990	9900
75.94	991	9910
75.96	992	9920
75.98	992	9920
76	993	9930
76.02	994	9940
76.04	994	9940
76.06	995	9950
76.08	995	9950
76.1	996	9960
76.12	997	9970
76.14	997	9970
76.16	998	9980
76.18	999	9990
76.2	999	9990
76.22	1000	10000
76.24	1000	10000
76.26	1001	10010
76.28	1002	10020
76.3	1002	10020
76.32	1003	10030
76.34	1003	10030
76.36	1004	10040
76.38	1005	10050
76.4	1005	10050
76.42	1006	10060
76.44	1007	10070
76.46	1007	10070
76.48	1008	10080
76.5	1008	10080
76.52	1009	10090
76.54	1010	10100
76.56	1010	10100
76.58	1011	10110
76.6	1011	10110
76.62	1012	10120
76.64	1013	10130
76.66	1013	10130
76.68	1014	10140
76.7	1015	10150
76.72	1015	10150
76.74	1016	10160
76.76	1017	10170
76.78	1017	10170
76.8	1018	10180
76.82	1019	10190
76.84	1019	10190
76.86	1020	10200
76.88	1021	10210
76.9	1021	10210
76.92	1022	10220
76.94	1022	10220
76.96	1023	10230
76.98	1024	10240
77	1024	10240
77.02	1025	10250
77.04	1026	10260
77.06	1026	10260
77.08	1027	10270
77.1	1027	10270
77.12	1028	10280
77.14	1029	10290
77.16	1029	10290
77.18	1030	10300
77.2	1030	10300
77.22	1031	10310
77.24	1032	10320
77.26	1032	10320
77.28	1033	10330
77.3	1033	10330
77.32	1034	10340
77.34	1035	10350
77.36	1035	10350
77.38	1036	10360
77.4	1037	10370
77.42	1037	10370
77.44	1038	10380
77.46	1039	10390
77.48	1039	10390
77.5	1040	10400
77.52	1041	10410
77.54	1042	10420
77.56	1042	10420
77.58	1043	10430
77.6	1044	10440
77.62	1044	10440
77.64	1045	10450
77.66	1046	10460
77.68	1046	10460
77.7	1047	10470
77.72	1048	10480
77.74	1049	10490
77.76	1049	10490
77.78	1050	10500
77.8	1050	10500
77.82	1051	10510
77.84	1052	10520
77.86	1053	10530
77.88	1053	10530
77.9	1054	10540
77.92	1055	10550
77.94	1056	10560
77.96	1056	10560
77.98	1057	10570
78	1058	10580
78.02	1059	10590
78.04	1059	10590
78.06	1060	10600
78.08	1061	10610
78.1	1062	10620
78.12	1062	10620
78.14	1063	10630
78.16	1064	10640
78.18	1065	10650
78.2	1065	10650
78.22	1066	10660
78.24	1067	10670
78.26	1067	10670
78.28	1068	10680
78.3	1069	10690
78.32	1070	10700
78.34	1070	10700
78.36	1071	10710
78.38	1072	10720
78.4	1072	10720
78.42	1073	10730
78.44	1074	10740
78.46	1074	10740
78.48	1075	10750
78.5	1076	10760
78.52	1077	10770
78.54	1077	10770
78.56	1078	10780
78.58	1079	10790
78.6	1079	10790
78.62	1080	10800
78.64	1081	10810
78.66	1081	10810
78.68	1082	10820
78.7	1083	10830
78.72	1084	10840
78.74	1084	10840
78.76	1085	10850
78.78	1086	10860
78.8	1086	10860
78.82	1087	10870
78.84	1088	10880
78.86	1088	10880
78.88	1089	10890
78.9	1090	10900
78.92	1090	10900
78.94	1091	10910
78.96	1092	10920
78.98	1092	10920
79	1093	10930
79.02	1094	10940
79.04	1095	10950
79.06	1095	10950
79.08	1096	10960
79.1	1097	10970
79.12	1097	10970
79.14	1098	10980
79.16	1099	10990
79.18	1099	10990
79.2	1100	11000
79.22	1101	11010
79.24	1101	11010
79.26	1102	11020
79.28	1103	11030
79.3	1103	11030
79.32	1104	11040
79.34	1105	11050
79.36	1105	11050
79.38	1106	11060
79.4	1107	11070
79.42	1108	11080
79.44	1108	11080
79.46	1109	11090
79.48	1110	11100
79.5	1111	11110
79.52	1111	11110
79.54	1112	11120
79.56	1113	11130
79.58	1114	11140
79.6	1114	11140
79.62	1115	11150
79.64	1116	11160
79.66	1117	11170
79.68	1117	11170
79.7	1118	11180
79.72	1119	11190
79.74	1120	11200
79.76	1121	11210
79.78	1121	11210
79.8	1122	11220
79.82	1123	11230
79.84	1124	11240
79.86	1125	11250
79.88	1125	11250
79.9	1126	11260
79.92	1127	11270
79.94	1128	11280
79.96	1128	11280
79.98	1129	11290
80	1130	11300
80.02	1131	11310
80.04	1131	11310
80.06	1132	11320
80.08	1133	11330
80.1	1134	11340
80.12	1134	11340
80.14	1135	11350
80.16	1136	11360
80.18	1137	11370
80.2	1137	11370
80.22	1138	11380
80.24	1139	11390
80.26	1139	11390
80.28	1140	11400
80.3	1141	11410
80.32	1142	11420
80.34	1142	11420
80.36	1143	11430
80.38	1144	11440
80.4	1144	11440
80.42	1145	11450
80.44	1146	11460
80.46	1146	11460
80.48	1147	11470
80.5	1148	11480
80.52	1148	11480
80.54	1149	11490
80.56	1150	11500
80.58	1150	11500
80.6	1151	11510
80.62	1152	11520
80.64	1152	11520
80.66	1153	11530
80.68	1154	11540
80.7	1154	11540
80.72	1155	11550
80.74	1156	11560
80.76	1156	11560
80.78	1157	11570
80.8	1158	11580
80.82	1158	11580
80.84	1159	11590
80.86	1160	11600
80.88	1161	11610
80.9	1161	11610
80.92	1162	11620
80.94	1162	11620
80.96	1163	11630
80.98	1164	11640
81	1164	11640
81.02	1165	11650
81.04	1166	11660
81.06	1166	11660
81.08	1167	11670
81.1	1167	11670
81.12	1168	11680
81.14	1169	11690
81.16	1169	11690
81.18	1170	11700
81.2	1170	11700
81.22	1171	11710
81.24	1172	11720
81.26	1173	11730
81.28	1173	11730
81.3	1174	11740
81.32	1174	11740
81.34	1175	11750
81.36	1176	11760
81.38	1176	11760
81.4	1177	11770
81.42	1178	11780
81.44	1178	11780
81.46	1179	11790
81.48	1180	11800
81.5	1180	11800
81.52	1181	11810
81.54	1182	11820
81.56	1182	11820
81.58	1183	11830
81.6	1184	11840
81.62	1185	11850
81.64	1185	11850
81.66	1186	11860
81.68	1187	11870
81.7	1187	11870
81.72	1188	11880
81.74	1189	11890
81.76	1189	11890
81.78	1190	11900
81.8	1191	11910
81.82	1192	11920
81.84	1192	11920
81.86	1193	11930
81.88	1194	11940
81.9	1194	11940
81.92	1195	11950
81.94	1196	11960
81.96	1197	11970
81.98	1197	11970
82	1198	11980
82.02	1199	11990
82.04	1199	11990
82.06	1200	12000
82.08	1201	12010
82.1	1201	12010
82.12	1202	12020
82.14	1203	12030
82.16	1204	12040
82.18	1204	12040
82.2	1205	12050
82.22	1206	12060
82.24	1206	12060
82.26	1207	12070
82.28	1208	12080
82.3	1208	12080
82.32	1209	12090
82.34	1210	12100
82.36	1210	12100
82.38	1211	12110
82.4	1212	12120
82.42	1212	12120
82.44	1213	12130
82.46	1214	12140
82.48	1214	12140
82.5	1215	12150
82.52	1215	12150
82.54	1216	12160
82.56	1217	12170
82.58	1217	12170
82.6	1218	12180
82.62	1218	12180
82.64	1219	12190
82.66	1220	12200
82.68	1220	12200
82.7	1221	12210
82.72	1221	12210
82.74	1222	12220
82.76	1222	12220
82.78	1223	12230
82.8	1224	12240
82.82	1224	12240
82.84	1225	12250
82.86	1225	12250
82.88	1226	12260
82.9	1227	12270
82.92	1227	12270
82.94	1228	12280
82.96	1228	12280
82.98	1229	12290
83	1229	12290
83.02	1230	12300
83.04	1231	12310
83.06	1231	12310
83.08	1232	12320
83.1	1232	12320
83.12	1233	12330
83.14	1234	12340
83.16	1234	12340
83.18	1235	12350
83.2	1235	12350
83.22	1236	12360
83.24	1236	12360
83.26	1237	12370
83.28	1237	12370
83.3	1238	12380
83.32	1238	12380
83.34	1239	12390
83.36	1239	12390
83.38	1240	12400
83.4	1241	12410
83.42	1241	12410
83.44	1242	12420
83.46	1242	12420
83.48	1243	12430
83.5	1243	12430
83.52	1244	12440
83.54	1244	12440
83.56	1245	12450
83.58	1245	12450
83.6	1246	12460
83.62	1246	12460
83.64	1247	12470
83.66	1247	12470
83.68	1248	12480
83.7	1249	12490
83.72	1249	12490
83.74	1250	12500
83.76	1250	12500
83.78	1251	12510
83.8	1251	12510
83.82	1252	12520
83.84	1252	12520
83.86	1253	12530
83.88	1254	12540
83.9	1254	12540
83.92	1255	12550
83.94	1255	12550
83.96	1256	12560
83.98	1256	12560
84	1257	12570
84.02	1258	12580
84.04	1258	12580
84.06	1259	12590
84.08	1259	12590
84.1	1260	12600
84.12	1261	12610
84.14	1261	12610
84.16	1262	12620
84.18	1262	12620
84.2	1263	12630
84.22	1264	12640
84.24	1264	12640
84.26	1265	12650
84.28	1265	12650
84.3	1266	12660
84.32	1266	12660
84.34	1267	12670
84.36	1268	12680
84.38	1268	12680
84.4	1269	12690
84.42	1270	12700
84.44	1270	12700
84.46	1271	12710
84.48	1271	12710
84.5	1272	12720
84.52	1272	12720
84.54	1273	12730
84.56	1274	12740
84.58	1274	12740
84.6	1275	12750
84.62	1275	12750
84.64	1276	12760
84.66	1276	12760
84.68	1277	12770
84.7	1278	12780
84.72	1278	12780
84.74	1278	12780
84.76	1279	12790
84.78	1280	12800
84.8	1280	12800
84.82	1281	12810
84.84	1281	12810
84.86	1282	12820
84.88	1282	12820
84.9	1283	12830
84.92	1283	12830
84.94	1284	12840
84.96	1284	12840
84.98	1285	12850
85	1285	12850
85.02	1286	12860
85.04	1286	12860
85.06	1287	12870
85.08	1287	12870
85.1	1288	12880
85.12	1288	12880
85.14	1289	12890
85.16	1289	12890
85.18	1290	12900
85.2	1290	12900
85.22	1290	12900
85.24	1291	12910
85.26	1291	12910
85.28	1292	12920
85.3	1292	12920
85.32	1293	12930
85.34	1293	12930
85.36	1293	12930
85.38	1294	12940
85.4	1294	12940
85.42	1295	12950
85.44	1295	12950
85.46	1295	12950
85.48	1296	12960
85.5	1296	12960
85.52	1297	12970
85.54	1297	12970
85.56	1297	12970
85.58	1298	12980
85.6	1298	12980
85.62	1299	12990
85.64	1299	12990
85.66	1299	12990
85.68	1300	13000
85.7	1300	13000
85.72	1301	13010
85.74	1301	13010
85.76	1302	13020
85.78	1302	13020
85.8	1302	13020
85.82	1303	13030
85.84	1303	13030
85.86	1304	13040
85.88	1304	13040
85.9	1304	13040
85.92	1305	13050
85.94	1305	13050
85.96	1305	13050
85.98	1306	13060
86	1306	13060
86.02	1306	13060
86.04	1306	13060
86.06	1307	13070
86.08	1307	13070
86.1	1307	13070
86.12	1308	13080
86.14	1308	13080
86.16	1308	13080
86.18	1308	13080
86.2	1309	13090
86.22	1309	13090
86.24	1309	13090
86.26	1309	13090
86.28	1310	13100
86.3	1310	13100
86.32	1310	13100
86.34	1310	13100
86.36	1311	13110
86.38	1311	13110
86.4	1311	13110
86.42	1311	13110
86.44	1311	13110
86.46	1312	13120
86.48	1312	13120
86.5	1312	13120
86.52	1312	13120
86.54	1313	13130
86.56	1313	13130
86.58	1313	13130
86.6	1313	13130
86.62	1313	13130
86.64	1314	13140
86.66	1314	13140
86.68	1314	13140
86.7	1314	13140
86.72	1314	13140
86.74	1314	13140
86.76	1315	13150
86.78	1315	13150
86.8	1315	13150
86.82	1315	13150
86.84	1315	13150
86.87	1316	13160
86.88	1316	13160
86.9	1316	13160
86.92	1316	13160
86.94	1316	13160
86.96	1317	13170
86.98	1317	13170
87	1317	13170
87.02	1317	13170
87.04	1317	13170
87.06	1317	13170
87.08	1317	13170
87.1	1317	13170
87.12	1317	13170
87.14	1318	13180
87.16	1318	13180
87.18	1318	13180
87.2	1318	13180
87.22	1318	13180
87.24	1318	13180
87.26	1318	13180
87.28	1318	13180
87.3	1318	13180
87.32	1319	13190
87.34	1319	13190
87.36	1319	13190
87.38	1319	13190
87.4	1319	13190
87.42	1319	13190
87.44	1319	13190
87.46	1319	13190
87.48	1319	13190
87.5	1319	13190
87.52	1319	13190
87.54	1319	13190
87.56	1319	13190
87.58	1319	13190
87.6	1319	13190
87.62	1319	13190
87.64	1319	13190
87.66	1319	13190
87.68	1319	13190
87.7	1319	13190
87.72	1319	13190
87.74	1319	13190
87.76	1319	13190
87.78	1319	13190
87.8	1320	13200
87.82	1320	13200
87.84	1320	13200
87.86	1320	13200
87.88	1320	13200
87.9	1320	13200
87.92	1320	13200
87.94	1320	13200
87.96	1320	13200
87.98	1320	13200
88	1320	13200
88.02	1320	13200
88.04	1320	13200
88.06	1320	13200
88.08	1320	13200
88.1	1320	13200
88.12	1320	13200
88.14	1320	13200
88.16	1320	13200
88.18	1320	13200
88.2	1320	13200
88.22	1320	13200
88.24	1320	13200
88.26	1321	13210
88.28	1321	13210
88.3	1321	13210
88.32	1321	13210
88.34	1321	13210
88.36	1321	13210
88.38	1321	13210
88.4	1321	13210
88.42	1321	13210
88.44	1321	13210
88.46	1321	13210
88.48	1321	13210
88.5	1321	13210
88.52	1322	13220
88.54	1322	13220
88.56	1322	13220
88.58	1322	13220
88.6	1322	13220
88.62	1322	13220
88.64	1322	13220
88.66	1322	13220
88.68	1322	13220
88.7	1323	13230
88.72	1323	13230
88.74	1323	13230
88.76	1323	13230
88.78	1323	13230
88.8	1323	13230
88.82	1323	13230
88.84	1323	13230
88.86	1323	13230
88.88	1323	13230
88.9	1324	13240
88.92	1324	13240
88.94	1324	13240
88.96	1324	13240
88.98	1324	13240
89	1324	13240
89.02	1324	13240
89.04	1324	13240
89.06	1324	13240
89.08	1324	13240
89.1	1324	13240
89.12	1324	13240
89.14	1324	13240
89.16	1324	13240
89.18	1324	13240
89.2	1324	13240
89.22	1324	13240
89.24	1325	13250
89.26	1325	13250
89.28	1325	13250
89.3	1325	13250
89.32	1325	13250
89.34	1325	13250
89.36	1325	13250
89.38	1325	13250
89.4	1325	13250
89.42	1325	13250
89.44	1325	13250
89.46	1325	13250
89.48	1325	13250
89.5	1325	13250
89.52	1325	13250
89.54	1325	13250
89.56	1325	13250
89.58	1325	13250
89.6	1325	13250
89.62	1325	13250
89.64	1325	13250
89.66	1325	13250
89.68	1325	13250
89.7	1326	13260
89.72	1326	13260
89.74	1326	13260
89.76	1326	13260
89.78	1326	13260
89.8	1326	13260
89.82	1326	13260
89.84	1326	13260
89.86	1326	13260
89.88	1326	13260
89.9	1327	13270
89.92	1327	13270
89.94	1327	13270
89.98	1327	13270
89.99	1327	13270
90	1327	13270
90.02	1327	13270
90.04	1328	13280
90.06	1328	13280
90.08	1328	13280
90.1	1328	13280
90.12	1328	13280
90.14	1328	13280
90.16	1328	13280
90.18	1328	13280
90.2	1328	13280
90.22	1329	13290
90.24	1329	13290
90.26	1329	13290
90.28	1329	13290
90.3	1329	13290
90.32	1329	13290
90.34	1329	13290
90.36	1329	13290
90.38	1329	13290
90.4	1329	13290
90.42	1330	13300
90.44	1330	13300
90.46	1330	13300
90.48	1330	13300
90.5	1330	13300
90.52	1330	13300
90.54	1330	13300
90.56	1330	13300
90.58	1330	13300
90.6	1330	13300
90.62	1330	13300
90.64	1330	13300
90.66	1330	13300
90.68	1330	13300
90.7	1331	13310
90.72	1331	13310
90.74	1331	13310
90.76	1331	13310
90.78	1331	13310
90.8	1331	13310
90.82	1331	13310
90.84	1331	13310
90.86	1331	13310
90.88	1331	13310
90.9	1331	13310
90.92	1331	13310
90.94	1331	13310
90.96	1331	13310
90.98	1331	13310
91	1332	13320
91.02	1332	13320
91.04	1332	13320
91.06	1332	13320
91.08	1332	13320
91.1	1332	13320
91.12	1332	13320
91.14	1332	13320
91.16	1332	13320
91.18	1332	13320
91.2	1332	13320
91.22	1332	13320
91.24	1332	13320
91.26	1332	13320
91.28	1333	13330
91.3	1333	13330
91.32	1333	13330
91.34	1333	13330
91.36	1333	13330
91.38	1333	13330
91.4	1333	13330
91.42	1333	13330
91.44	1333	13330
91.46	1334	13340
91.48	1334	13340
91.5	1334	13340
91.52	1334	13340
91.54	1334	13340
91.56	1334	13340
91.58	1335	13350
91.6	1335	13350
91.62	1335	13350
91.64	1335	13350
91.66	1335	13350
91.68	1335	13350
91.7	1335	13350
91.72	1335	13350
91.74	1335	13350
91.76	1336	13360
91.78	1336	13360
91.8	1336	13360
91.82	1336	13360
91.84	1336	13360
91.86	1336	13360
91.88	1337	13370
91.9	1337	13370
91.92	1337	13370
91.94	1337	13370
91.96	1337	13370
91.98	1337	13370
92	1338	13380
92.02	1338	13380
92.04	1338	13380
92.06	1338	13380
92.08	1338	13380
92.1	1338	13380
92.12	1339	13390
92.14	1339	13390
92.16	1339	13390
92.18	1339	13390
92.2	1339	13390
92.22	1339	13390
92.24	1340	13400
92.26	1340	13400
92.28	1340	13400
92.3	1340	13400
92.32	1340	13400
92.34	1341	13410
92.36	1341	13410
92.38	1341	13410
92.4	1341	13410
92.42	1341	13410
92.44	1341	13410
92.46	1342	13420
92.48	1342	13420
92.5	1342	13420
92.52	1342	13420
92.54	1342	13420
92.56	1342	13420
92.58	1343	13430
92.6	1343	13430
92.62	1343	13430
92.64	1343	13430
92.66	1344	13440
92.68	1344	13440
92.7	1344	13440
92.72	1344	13440
92.74	1345	13450
92.76	1345	13450
92.78	1345	13450
92.8	1345	13450
92.82	1346	13460
92.84	1346	13460
92.86	1346	13460
92.88	1347	13470
92.9	1347	13470
92.92	1347	13470
92.94	1347	13470
92.96	1348	13480
92.98	1348	13480
93	1348	13480
93.02	1349	13490
93.04	1349	13490
93.06	1349	13490
93.08	1350	13500
93.1	1350	13500
93.12	1350	13500
93.14	1350	13500
93.16	1351	13510
93.18	1351	13510
93.2	1352	13520
93.22	1352	13520
93.24	1352	13520
93.26	1353	13530
93.28	1353	13530
93.3	1353	13530
93.32	1353	13530
93.34	1354	13540
93.36	1354	13540
93.38	1354	13540
93.4	1355	13550
93.42	1355	13550
93.44	1355	13550
93.46	1356	13560
93.48	1356	13560
93.5	1356	13560
93.52	1357	13570
93.54	1357	13570
93.56	1357	13570
93.58	1358	13580
93.6	1358	13580
93.62	1358	13580
93.64	1359	13590
93.66	1359	13590
93.68	1359	13590
93.7	1360	13600
93.72	1360	13600
93.74	1360	13600
93.76	1361	13610
93.78	1361	13610
93.8	1361	13610
93.82	1362	13620
93.84	1362	13620
93.86	1362	13620
93.88	1363	13630
93.9	1363	13630
93.92	1364	13640
93.94	1364	13640
93.96	1364	13640
93.98	1365	13650
94	1365	13650
94.02	1365	13650
94.04	1366	13660
94.06	1366	13660
94.08	1367	13670
94.1	1367	13670
94.12	1367	13670
94.14	1368	13680
94.16	1368	13680
94.18	1369	13690
94.2	1369	13690
94.22	1370	13700
94.24	1370	13700
94.26	1370	13700
94.28	1371	13710
94.3	1371	13710
94.32	1372	13720
94.34	1372	13720
94.36	1372	13720
94.38	1373	13730
94.4	1373	13730
94.42	1374	13740
94.44	1374	13740
94.46	1375	13750
94.48	1375	13750
94.5	1376	13760
94.52	1376	13760
94.54	1376	13760
94.56	1377	13770
94.58	1377	13770
94.6	1378	13780
94.62	1378	13780
94.64	1379	13790
94.66	1379	13790
94.68	1379	13790
94.7	1380	13800
94.72	1380	13800
94.74	1381	13810
94.76	1381	13810
94.78	1381	13810
94.8	1382	13820
94.82	1383	13830
94.84	1383	13830
94.86	1384	13840
94.88	1384	13840
94.9	1384	13840
94.92	1385	13850
94.94	1385	13850
94.96	1386	13860
94.98	1386	13860
95	1387	13870
95.02	1387	13870
95.04	1388	13880
95.06	1388	13880
95.08	1389	13890
95.1	1389	13890
95.12	1389	13890
95.14	1390	13900
95.16	1391	13910
95.18	1391	13910
95.2	1391	13910
95.22	1392	13920
95.24	1392	13920
95.26	1393	13930
95.28	1393	13930
95.3	1394	13940
95.32	1394	13940
95.34	1395	13950
95.36	1395	13950
95.38	1396	13960
95.4	1396	13960
95.42	1396	13960
95.44	1397	13970
95.46	1397	13970
95.48	1398	13980
95.5	1398	13980
95.52	1399	13990
95.54	1399	13990
95.56	1400	14000
95.58	1400	14000
95.6	1400	14000
95.62	1401	14010
95.64	1401	14010
95.66	1402	14020
95.68	1402	14020
95.7	1402	14020
95.72	1403	14030
95.74	1403	14030
95.76	1404	14040
95.78	1404	14040
95.8	1404	14040
95.82	1405	14050
95.84	1405	14050
95.86	1406	14060
95.88	1406	14060
95.9	1407	14070
95.92	1407	14070
95.94	1408	14080
95.96	1408	14080
95.98	1409	14090
96	1409	14090
96.02	1410	14100
96.04	1410	14100
96.06	1410	14100
96.08	1411	14110
96.1	1411	14110
96.12	1412	14120
96.14	1412	14120
96.16	1413	14130
96.18	1413	14130
96.2	1414	14140
96.22	1414	14140
96.24	1414	14140
96.26	1415	14150
96.28	1415	14150
96.3	1416	14160
96.32	1416	14160
96.34	1417	14170
96.36	1417	14170
96.38	1417	14170
96.4	1418	14180
96.42	1418	14180
96.44	1419	14190
96.46	1419	14190
96.48	1420	14200
96.5	1420	14200
96.52	1420	14200
96.54	1421	14210
96.56	1421	14210
96.58	1422	14220
96.6	1422	14220
96.62	1422	14220
96.64	1423	14230
96.66	1423	14230
96.68	1424	14240
96.7	1424	14240
96.72	1424	14240
96.74	1425	14250
96.76	1425	14250
96.78	1426	14260
96.8	1426	14260
96.82	1426	14260
96.84	1427	14270
96.87	1427	14270
96.88	1428	14280
96.9	1428	14280
96.92	1428	14280
96.94	1429	14290
96.96	1429	14290
96.98	1430	14300
97	1430	14300
97.02	1430	14300
97.04	1431	14310
97.06	1431	14310
97.08	1431	14310
97.1	1432	14320
97.12	1432	14320
97.14	1433	14330
97.16	1433	14330
97.18	1433	14330
97.2	1434	14340
97.22	1434	14340
97.24	1434	14340
97.26	1435	14350
97.28	1435	14350
97.3	1435	14350
97.32	1436	14360
97.34	1436	14360
97.36	1436	14360
97.38	1437	14370
97.4	1437	14370
97.42	1437	14370
97.44	1438	14380
97.46	1438	14380
97.48	1438	14380
97.5	1438	14380
97.52	1439	14390
97.54	1439	14390
97.56	1439	14390
97.58	1440	14400
97.6	1440	14400
97.62	1440	14400
97.64	1440	14400
97.66	1441	14410
97.68	1441	14410
97.7	1441	14410
97.72	1442	14420
97.74	1442	14420
97.76	1442	14420
97.78	1443	14430
97.8	1443	14430
97.82	1443	14430
97.84	1443	14430
97.86	1444	14440
97.88	1444	14440
97.9	1444	14440
97.92	1445	14450
97.94	1445	14450
97.96	1445	14450
97.98	1445	14450
98	1446	14460
98.02	1446	14460
98.04	1446	14460
98.06	1447	14470
98.08	1447	14470
98.1	1447	14470
98.12	1447	14470
98.14	1448	14480
98.16	1448	14480
98.18	1448	14480
98.2	1449	14490
98.22	1449	14490
98.24	1449	14490
98.26	1449	14490
98.28	1450	14500
98.3	1450	14500
98.32	1450	14500
98.34	1450	14500
98.36	1451	14510
98.38	1451	14510
98.4	1451	14510
98.42	1451	14510
98.44	1452	14520
98.46	1452	14520
98.48	1452	14520
98.5	1452	14520
98.52	1453	14530
98.54	1453	14530
98.56	1453	14530
98.58	1453	14530
98.6	1454	14540
98.62	1454	14540
98.64	1454	14540
98.66	1454	14540
98.68	1455	14550
98.7	1455	14550
98.72	1455	14550
98.74	1455	14550
98.76	1455	14550
98.78	1456	14560
98.8	1456	14560
98.82	1456	14560
98.84	1456	14560
98.86	1456	14560
98.88	1456	14560
98.9	1457	14570
98.92	1457	14570
98.94	1457	14570
98.96	1457	14570
98.98	1457	14570
99	1458	14580
99.02	1458	14580
99.04	1458	14580
99.06	1458	14580
99.08	1458	14580
99.1	1459	14590
99.12	1459	14590
99.14	1459	14590
99.16	1459	14590
99.18	1459	14590
99.2	1460	14600
99.22	1460	14600
99.24	1460	14600
99.26	1460	14600
99.28	1460	14600
99.3	1461	14610
99.32	1461	14610
99.34	1461	14610
99.36	1461	14610
99.38	1461	14610
99.4	1461	14610
99.42	1461	14610
99.44	1462	14620
99.46	1462	14620
99.48	1462	14620
99.5	1462	14620
99.52	1462	14620
99.54	1463	14630
99.56	1463	14630
99.58	1463	14630
99.6	1463	14630
99.62	1463	14630
99.64	1464	14640
99.66	1464	14640
99.68	1464	14640
99.7	1464	14640
99.72	1464	14640
99.74	1464	14640
99.76	1465	14650
99.78	1465	14650
99.8	1465	14650
99.82	1465	14650
99.84	1465	14650
99.86	1465	14650
99.88	1465	14650
99.9	1466	14660
99.92	1466	14660
99.94	1466	14660
99.96	1466	14660
99.98	1466	14660
100	1466	14660
100.02	1466	14660
100.04	1467	14670
100.06	1467	14670
100.08	1467	14670
100.1	1467	14670
100.12	1467	14670
100.14	1467	14670
100.16	1467	14670
100.18	1467	14670
100.2	1468	14680
100.22	1468	14680
100.24	1468	14680
100.26	1468	14680
100.28	1468	14680
100.3	1468	14680
100.32	1468	14680
100.34	1468	14680
100.36	1468	14680
100.38	1469	14690
100.4	1469	14690
100.42	1469	14690
100.44	1469	14690
100.46	1469	14690
100.48	1469	14690
100.5	1469	14690
100.52	1470	14700
100.54	1470	14700
100.56	1470	14700
100.58	1470	14700
100.6	1470	14700
100.62	1470	14700
100.64	1470	14700
100.66	1471	14710
100.68	1471	14710
100.7	1471	14710
100.72	1471	14710
100.74	1471	14710
100.76	1471	14710
100.78	1472	14720
100.8	1472	14720
100.82	1472	14720
100.84	1472	14720
100.86	1472	14720
100.91	1473	14730
100.93	1473	14730
100.94	1473	14730
100.96	1473	14730
100.97	1473	14730
100.99	1473	14730
101	1473	14730
101.02	1474	14740
101.04	1474	14740
101.06	1474	14740
101.08	1474	14740
101.1	1474	14740
101.12	1475	14750
101.14	1475	14750
101.16	1475	14750
101.18	1475	14750
101.2	1475	14750
101.22	1476	14760
101.24	1476	14760
101.26	1476	14760
101.28	1476	14760
101.3	1476	14760
101.32	1476	14760
101.34	1477	14770
101.36	1477	14770
101.38	1477	14770
101.4	1477	14770
101.42	1478	14780
101.44	1478	14780
101.46	1478	14780
101.48	1478	14780
101.5	1478	14780
101.52	1479	14790
101.54	1479	14790
101.56	1479	14790
101.58	1479	14790
101.6	1479	14790
101.62	1479	14790
101.64	1479	14790
101.66	1480	14800
101.68	1480	14800
101.7	1480	14800
101.72	1480	14800
101.74	1480	14800
101.76	1481	14810
101.78	1481	14810
101.8	1481	14810
101.82	1481	14810
101.84	1481	14810
101.88	1482	14820
101.9	1482	14820
101.91	1482	14820
101.92	1482	14820
101.94	1482	14820
101.96	1482	14820
101.98	1482	14820
102	1483	14830
102.02	1483	14830
102.04	1483	14830
102.06	1483	14830
102.08	1483	14830
102.1	1484	14840
102.12	1484	14840
102.14	1484	14840
102.16	1484	14840
102.18	1484	14840
102.2	1484	14840
102.22	1484	14840
102.24	1485	14850
102.26	1485	14850
102.28	1485	14850
102.3	1485	14850
102.32	1485	14850
102.34	1486	14860
102.36	1486	14860
102.38	1486	14860
102.4	1486	14860
102.42	1486	14860
102.44	1486	14860
102.46	1487	14870
102.48	1487	14870
102.5	1487	14870
102.52	1487	14870
102.54	1487	14870
102.56	1487	14870
102.58	1488	14880
102.6	1488	14880
102.62	1488	14880
102.64	1488	14880
102.66	1488	14880
102.68	1488	14880
102.7	1488	14880
102.72	1489	14890
102.74	1489	14890
102.76	1489	14890
102.78	1489	14890
102.8	1489	14890
102.82	1490	14900
102.84	1490	14900
102.86	1490	14900
102.88	1490	14900
102.9	1490	14900
102.92	1490	14900
102.94	1490	14900
102.96	1491	14910
102.98	1491	14910
103	1491	14910
103.02	1491	14910
103.04	1491	14910
103.06	1491	14910
103.08	1491	14910
103.1	1491	14910
103.12	1491	14910
103.14	1491	14910
103.16	1492	14920
103.18	1492	14920
103.2	1492	14920
103.22	1492	14920
103.24	1492	14920
103.26	1492	14920
103.28	1492	14920
103.3	1492	14920
103.32	1492	14920
103.34	1492	14920
103.36	1492	14920
103.38	1492	14920
103.4	1492	14920
103.42	1492	14920
103.44	1493	14930
103.46	1493	14930
103.48	1493	14930
103.5	1493	14930
103.52	1493	14930
103.54	1493	14930
103.56	1493	14930
103.58	1493	14930
103.6	1493	14930
103.62	1493	14930
103.64	1493	14930
103.66	1493	14930
103.68	1493	14930
103.7	1493	14930
103.72	1494	14940
103.74	1494	14940
103.76	1494	14940
103.78	1494	14940
103.8	1494	14940
103.82	1494	14940
103.84	1494	14940
103.86	1494	14940
103.88	1494	14940
103.9	1494	14940
103.92	1494	14940
103.94	1494	14940
103.96	1494	14940
103.98	1494	14940
104	1494	14940
104.02	1494	14940
104.04	1494	14940
104.06	1494	14940
104.08	1495	14950
104.1	1495	14950
104.12	1495	14950
104.14	1495	14950
104.16	1495	14950
104.18	1495	14950
104.2	1495	14950
104.22	1495	14950
104.24	1495	14950
104.26	1495	14950
104.28	1495	14950
104.3	1495	14950
104.32	1495	14950
104.34	1495	14950
104.36	1496	14960
104.38	1496	14960
104.4	1496	14960
104.42	1496	14960
104.44	1496	14960
104.46	1496	14960
104.48	1496	14960
104.5	1496	14960
104.52	1496	14960
104.54	1496	14960
104.56	1496	14960
104.58	1496	14960
104.6	1496	14960
104.62	1496	14960
104.64	1497	14970
104.66	1497	14970
104.68	1497	14970
104.7	1497	14970
104.72	1497	14970
104.74	1497	14970
104.76	1497	14970
104.78	1497	14970
104.8	1497	14970
104.82	1497	14970
104.84	1497	14970
104.86	1497	14970
104.88	1497	14970
104.9	1497	14970
104.92	1497	14970
104.94	1497	14970
104.96	1497	14970
104.98	1497	14970
105	1497	14970
105.02	1497	14970
105.04	1497	14970
105.06	1498	14980
105.08	1498	14980
105.1	1498	14980
105.12	1498	14980
105.14	1498	14980
105.16	1498	14980
105.18	1498	14980
105.2	1498	14980
105.22	1498	14980
105.24	1498	14980
105.26	1498	14980
105.28	1498	14980
105.3	1498	14980
105.32	1498	14980
105.34	1498	14980
105.36	1498	14980
105.38	1498	14980
105.4	1498	14980
105.42	1498	14980
105.44	1498	14980
105.46	1498	14980
105.48	1498	14980
105.5	1498	14980
105.52	1498	14980
105.54	1498	14980
105.56	1498	14980
105.58	1498	14980
105.6	1498	14980
105.62	1498	14980
105.64	1498	14980
105.66	1498	14980
105.68	1498	14980
105.7	1498	14980
105.72	1498	14980
105.74	1498	14980
105.76	1498	14980
105.78	1498	14980
105.8	1498	14980
105.82	1498	14980
105.84	1499	14990
105.86	1499	14990
105.88	1499	14990
105.9	1499	14990
105.92	1499	14990
105.94	1499	14990
105.96	1499	14990
105.98	1499	14990
106	1499	14990
106.02	1499	14990
106.04	1499	14990
106.06	1499	14990
106.08	1499	14990
106.1	1499	14990
106.12	1499	14990
106.14	1499	14990
106.16	1499	14990
106.18	1499	14990
106.2	1499	14990
106.22	1499	14990
106.24	1500	15000
106.26	1500	15000
106.28	1500	15000
106.3	1500	15000
106.32	1500	15000
106.34	1500	15000
106.36	1500	15000
106.38	1500	15000
106.4	1500	15000
106.42	1500	15000
106.44	1500	15000
106.46	1500	15000
106.48	1500	15000
106.5	1500	15000
106.52	1500	15000
106.54	1501	15010
106.56	1501	15010
106.58	1501	15010
106.6	1501	15010
106.62	1501	15010
106.64	1501	15010
106.66	1501	15010
106.68	1501	15010
106.7	1501	15010
106.72	1501	15010
106.74	1501	15010
106.76	1501	15010
106.78	1501	15010
106.8	1501	15010
106.82	1501	15010
106.84	1501	15010
106.87	1501	15010
106.88	1501	15010
106.9	1501	15010
106.92	1501	15010
106.94	1501	15010
106.96	1501	15010
106.98	1501	15010
107	1501	15010
107.02	1501	15010
107.04	1501	15010
107.06	1501	15010
107.08	1501	15010
107.1	1501	15010
107.12	1501	15010
107.14	1502	15020
107.16	1502	15020
107.18	1502	15020
107.2	1502	15020
107.22	1502	15020
107.24	1502	15020
107.26	1502	15020
107.28	1502	15020
107.3	1502	15020
107.32	1502	15020
107.34	1502	15020
107.36	1502	15020
107.38	1502	15020
107.4	1502	15020
107.42	1502	15020
107.44	1502	15020
107.46	1502	15020
107.48	1502	15020
107.5	1502	15020
107.52	1502	15020
107.54	1502	15020
107.56	1503	15030
107.58	1503	15030
107.6	1503	15030
107.62	1503	15030
107.64	1503	15030
107.66	1503	15030
107.68	1503	15030
107.7	1503	15030
107.72	1503	15030
107.74	1503	15030
107.76	1503	15030
107.78	1503	15030
107.8	1503	15030
107.82	1504	15040
107.84	1504	15040
107.86	1504	15040
107.88	1504	15040
107.9	1504	15040
107.92	1504	15040
107.94	1504	15040
107.96	1504	15040
107.98	1504	15040
108	1504	15040
108.02	1505	15050
108.04	1505	15050
108.06	1505	15050
108.08	1505	15050
108.1	1505	15050
108.12	1505	15050
108.14	1505	15050
108.16	1505	15050
108.18	1505	15050
108.2	1505	15050
108.22	1506	15060
108.24	1506	15060
108.26	1506	15060
108.28	1506	15060
108.3	1506	15060
108.32	1506	15060
108.34	1506	15060
108.36	1506	15060
108.38	1506	15060
108.4	1506	15060
108.42	1506	15060
108.44	1507	15070
108.46	1507	15070
108.48	1507	15070
108.5	1507	15070
108.52	1507	15070
108.54	1507	15070
108.56	1507	15070
108.58	1507	15070
108.6	1508	15080
108.62	1508	15080
108.64	1508	15080
108.66	1508	15080
108.68	1508	15080
108.7	1508	15080
108.72	1508	15080
108.74	1508	15080
108.76	1508	15080
108.78	1508	15080
108.82	1508	15080
108.84	1509	15090
108.85	1509	15090
108.87	1509	15090
108.88	1509	15090
108.9	1509	15090
108.92	1509	15090
108.94	1509	15090
108.96	1509	15090
108.98	1509	15090
109	1509	15090
109.02	1509	15090
109.04	1509	15090
109.06	1510	15100
109.08	1510	15100
109.1	1510	15100
109.12	1510	15100
109.14	1510	15100
109.16	1510	15100
109.18	1510	15100
109.2	1510	15100
109.22	1510	15100
109.24	1510	15100
109.26	1510	15100
109.28	1510	15100
109.3	1510	15100
109.32	1510	15100
109.34	1510	15100
109.36	1511	15110
109.38	1511	15110
109.4	1511	15110
109.42	1511	15110
109.44	1511	15110
109.46	1511	15110
109.48	1511	15110
109.5	1511	15110
109.52	1511	15110
109.54	1511	15110
109.56	1511	15110
109.58	1511	15110
109.6	1512	15120
109.62	1512	15120
109.64	1512	15120
109.66	1512	15120
109.68	1512	15120
109.7	1512	15120
109.72	1512	15120
109.74	1512	15120
109.76	1512	15120
109.78	1512	15120
109.8	1512	15120
109.82	1513	15130
109.84	1513	15130
109.87	1513	15130
109.88	1513	15130
109.9	1513	15130
109.92	1513	15130
109.94	1513	15130
109.96	1513	15130
109.98	1513	15130
110	1513	15130
110.02	1514	15140
110.04	1514	15140
110.06	1514	15140
110.08	1514	15140
110.1	1514	15140
110.12	1514	15140
110.14	1514	15140
110.16	1515	15150
110.18	1515	15150
110.2	1515	15150
110.22	1515	15150
110.24	1515	15150
110.26	1515	15150
110.28	1515	15150
110.3	1516	15160
110.32	1516	15160
110.34	1516	15160
110.36	1516	15160
110.38	1516	15160
110.4	1516	15160
110.42	1517	15170
110.44	1517	15170
110.46	1517	15170
110.48	1517	15170
110.5	1517	15170
110.52	1517	15170
110.54	1517	15170
110.56	1518	15180
110.58	1518	15180
110.6	1518	15180
110.62	1518	15180
110.64	1518	15180
110.66	1518	15180
110.68	1519	15190
110.7	1519	15190
110.72	1519	15190
110.74	1519	15190
110.76	1519	15190
110.78	1519	15190
110.8	1519	15190
110.82	1520	15200
110.84	1520	15200
110.86	1520	15200
110.88	1520	15200
110.9	1520	15200
110.92	1520	15200
110.94	1520	15200
110.96	1521	15210
110.98	1521	15210
111	1521	15210
111.02	1521	15210
111.04	1521	15210
111.06	1522	15220
111.08	1522	15220
111.1	1522	15220
111.12	1522	15220
111.14	1523	15230
111.16	1523	15230
111.18	1523	15230
111.2	1523	15230
111.22	1523	15230
111.24	1523	15230
111.26	1524	15240
111.28	1524	15240
111.3	1524	15240
111.32	1524	15240
111.34	1524	15240
111.36	1525	15250
111.38	1525	15250
111.4	1525	15250
111.43	1525	15250
111.44	1525	15250
111.46	1526	15260
111.48	1526	15260
111.5	1526	15260
111.52	1526	15260
111.54	1526	15260
111.56	1527	15270
111.58	1527	15270
111.6	1527	15270
111.62	1527	15270
111.64	1527	15270
111.66	1528	15280
111.68	1528	15280
111.7	1528	15280
111.72	1528	15280
111.74	1529	15290
111.76	1529	15290
111.78	1529	15290
111.8	1529	15290
111.82	1529	15290
111.84	1530	15300
111.86	1530	15300
111.88	1530	15300
111.9	1530	15300
111.92	1530	15300
111.94	1531	15310
111.96	1531	15310
111.98	1531	15310
112	1531	15310
112.02	1531	15310
112.04	1532	15320
112.06	1532	15320
112.08	1532	15320
112.1	1532	15320
112.12	1532	15320
112.14	1533	15330
112.16	1533	15330
112.18	1533	15330
112.2	1533	15330
112.22	1533	15330
112.24	1534	15340
112.26	1534	15340
112.28	1534	15340
112.3	1534	15340
112.32	1534	15340
112.34	1535	15350
112.36	1535	15350
112.38	1535	15350
112.4	1535	15350
112.42	1535	15350
112.44	1536	15360
112.46	1536	15360
112.48	1536	15360
112.5	1536	15360
112.52	1536	15360
112.54	1537	15370
112.56	1537	15370
112.58	1537	15370
112.6	1537	15370
112.62	1537	15370
112.64	1538	15380
112.66	1538	15380
112.68	1538	15380
112.7	1538	15380
112.72	1538	15380
112.74	1539	15390
112.76	1539	15390
112.78	1539	15390
112.8	1539	15390
112.82	1539	15390
112.84	1540	15400
112.86	1540	15400
112.88	1540	15400
112.9	1540	15400
112.92	1540	15400
112.94	1540	15400
112.96	1541	15410
112.98	1541	15410
113	1541	15410
113.02	1541	15410
113.04	1541	15410
113.06	1542	15420
113.08	1542	15420
113.1	1542	15420
113.12	1542	15420
113.14	1543	15430
113.16	1543	15430
113.18	1543	15430
113.2	1543	15430
113.22	1543	15430
113.24	1543	15430
113.26	1544	15440
113.28	1544	15440
113.3	1544	15440
113.32	1544	15440
113.34	1544	15440
113.36	1544	15440
113.38	1545	15450
113.4	1545	15450
113.42	1545	15450
113.44	1545	15450
113.46	1546	15460
113.48	1546	15460
113.5	1546	15460
113.52	1546	15460
113.54	1546	15460
113.56	1546	15460
113.58	1547	15470
113.6	1547	15470
113.62	1547	15470
113.64	1547	15470
113.66	1547	15470
113.68	1547	15470
113.7	1547	15470
113.72	1548	15480
113.74	1548	15480
113.76	1548	15480
113.78	1548	15480
113.8	1548	15480
113.82	1548	15480
113.84	1548	15480
113.86	1549	15490
113.88	1549	15490
113.9	1549	15490
113.92	1549	15490
113.94	1549	15490
113.96	1549	15490
113.98	1549	15490
114	1550	15500
114.02	1550	15500
114.04	1550	15500
114.06	1550	15500
114.08	1550	15500
114.1	1550	15500
114.12	1551	15510
114.14	1551	15510
114.16	1551	15510
114.18	1551	15510
114.2	1551	15510
114.22	1551	15510
114.24	1552	15520
114.26	1552	15520
114.28	1552	15520
114.3	1552	15520
114.32	1552	15520
114.34	1552	15520
114.36	1552	15520
114.38	1553	15530
114.4	1553	15530
114.42	1553	15530
114.44	1553	15530
114.46	1553	15530
114.48	1553	15530
114.5	1553	15530
114.52	1554	15540
114.54	1554	15540
114.56	1554	15540
114.58	1554	15540
114.6	1554	15540
114.62	1554	15540
114.64	1555	15550
114.66	1555	15550
114.68	1555	15550
114.7	1555	15550
114.72	1555	15550
114.74	1555	15550
114.76	1555	15550
114.78	1556	15560
114.8	1556	15560
114.82	1556	15560
114.84	1556	15560
114.86	1556	15560
114.88	1556	15560
114.9	1556	15560
114.92	1556	15560
114.94	1557	15570
114.96	1557	15570
114.98	1557	15570
115	1557	15570
115.02	1557	15570
115.04	1557	15570
115.06	1558	15580
115.08	1558	15580
115.1	1558	15580
115.12	1558	15580
115.14	1558	15580
115.16	1558	15580
115.18	1558	15580
115.2	1559	15590
115.22	1559	15590
115.24	1559	15590
115.26	1559	15590
115.28	1559	15590
115.3	1559	15590
115.32	1559	15590
115.34	1560	15600
115.36	1560	15600
115.38	1560	15600
115.4	1560	15600
115.42	1560	15600
115.44	1560	15600
115.46	1560	15600
115.48	1561	15610
115.5	1561	15610
115.52	1561	15610
115.54	1561	15610
115.56	1561	15610
115.58	1561	15610
115.6	1562	15620
115.62	1562	15620
115.64	1562	15620
115.66	1562	15620
115.68	1562	15620
115.7	1562	15620
115.72	1562	15620
115.74	1563	15630
115.76	1563	15630
115.78	1563	15630
115.8	1563	15630
115.82	1563	15630
115.84	1563	15630
115.86	1564	15640
115.88	1564	15640
115.9	1564	15640
115.92	1564	15640
115.94	1564	15640
115.96	1565	15650
115.98	1565	15650
116	1565	15650
116.02	1565	15650
116.04	1565	15650
116.06	1566	15660
116.08	1566	15660
116.1	1566	15660
116.12	1566	15660
116.14	1566	15660
116.16	1567	15670
116.18	1567	15670
116.2	1567	15670
116.22	1567	15670
116.24	1567	15670
116.26	1568	15680
116.28	1568	15680
116.3	1568	15680
116.33	1568	15680
116.35	1568	15680
116.37	1569	15690
116.38	1569	15690
116.4	1569	15690
116.42	1569	15690
116.44	1569	15690
116.46	1570	15700
116.48	1570	15700
116.5	1570	15700
116.52	1570	15700
116.54	1570	15700
116.56	1571	15710
116.58	1571	15710
116.6	1571	15710
116.62	1571	15710
116.64	1571	15710
116.66	1571	15710
116.68	1572	15720
116.7	1572	15720
116.72	1572	15720
116.74	1572	15720
116.76	1572	15720
116.78	1573	15730
116.8	1573	15730
116.82	1573	15730
116.84	1573	15730
116.87	1574	15740
116.89	1574	15740
116.9	1574	15740
116.92	1574	15740
116.94	1574	15740
116.96	1574	15740
116.98	1575	15750
117	1575	15750
117.02	1575	15750
117.04	1575	15750
117.06	1575	15750
117.08	1575	15750
117.1	1576	15760
117.12	1576	15760
117.14	1576	15760
117.16	1576	15760
117.18	1576	15760
117.2	1577	15770
117.22	1577	15770
117.24	1577	15770
117.26	1577	15770
117.28	1577	15770
117.3	1578	15780
117.32	1578	15780
117.34	1578	15780
117.36	1578	15780
117.38	1579	15790
117.4	1579	15790
117.42	1579	15790
117.44	1579	15790
117.46	1579	15790
117.48	1579	15790
117.5	1580	15800
117.52	1580	15800
117.54	1580	15800
117.56	1580	15800
117.58	1580	15800
117.6	1580	15800
117.62	1581	15810
117.64	1581	15810
117.66	1581	15810
117.68	1581	15810
117.7	1581	15810
117.72	1582	15820
117.74	1582	15820
117.76	1582	15820
117.78	1582	15820
117.8	1582	15820
117.82	1583	15830
117.84	1583	15830
117.86	1583	15830
117.88	1583	15830
117.9	1583	15830
117.92	1584	15840
117.94	1584	15840
117.96	1584	15840
117.98	1584	15840
118	1584	15840
118.02	1584	15840
118.04	1585	15850
118.06	1585	15850
118.08	1585	15850
118.1	1585	15850
118.12	1585	15850
118.14	1585	15850
118.16	1585	15850
118.18	1586	15860
118.2	1586	15860
118.22	1586	15860
118.24	1586	15860
118.26	1586	15860
118.28	1586	15860
118.3	1587	15870
118.32	1587	15870
118.34	1587	15870
118.36	1587	15870
118.38	1587	15870
118.4	1587	15870
118.42	1588	15880
118.44	1588	15880
118.46	1588	15880
118.48	1588	15880
118.5	1588	15880
118.52	1588	15880
118.54	1588	15880
118.56	1589	15890
118.58	1589	15890
118.6	1589	15890
118.62	1589	15890
118.64	1589	15890
118.66	1589	15890
118.68	1589	15890
118.7	1590	15900
118.72	1590	15900
118.74	1590	15900
118.76	1590	15900
118.78	1590	15900
118.8	1590	15900
118.82	1590	15900
118.84	1590	15900
118.86	1591	15910
118.88	1591	15910
118.9	1591	15910
118.92	1591	15910
118.94	1591	15910
118.96	1591	15910
118.98	1591	15910
119	1592	15920
119.02	1592	15920
119.04	1592	15920
119.06	1592	15920
119.08	1592	15920
119.1	1592	15920
119.12	1592	15920
119.14	1592	15920
119.16	1592	15920
119.18	1592	15920
119.2	1592	15920
119.22	1593	15930
119.24	1593	15930
119.26	1593	15930
119.28	1593	15930
119.3	1593	15930
119.32	1593	15930
119.34	1593	15930
119.36	1593	15930
119.38	1593	15930
119.4	1594	15940
119.42	1594	15940
119.44	1594	15940
119.46	1594	15940
119.48	1594	15940
119.5	1594	15940
119.52	1594	15940
119.54	1594	15940
119.56	1594	15940
119.58	1595	15950
119.6	1595	15950
119.62	1595	15950
119.64	1595	15950
119.66	1595	15950
119.68	1595	15950
119.7	1595	15950
119.72	1595	15950
119.74	1595	15950
119.76	1595	15950
119.78	1595	15950
119.8	1595	15950
119.82	1595	15950
119.84	1595	15950
119.86	1596	15960
119.88	1596	15960
119.9	1596	15960
119.92	1596	15960
119.94	1596	15960
119.96	1596	15960
119.98	1596	15960
120	1596	15960
120.02	1596	15960
120.04	1596	15960
120.06	1596	15960
120.08	1596	15960
120.1	1597	15970
120.12	1597	15970
120.14	1597	15970
120.16	1597	15970
120.18	1597	15970
120.2	1597	15970
120.22	1597	15970
120.24	1597	15970
120.26	1597	15970
120.28	1597	15970
120.3	1597	15970
120.32	1597	15970
120.34	1597	15970
120.36	1598	15980
120.38	1598	15980
120.4	1598	15980
120.42	1598	15980
120.44	1598	15980
120.46	1598	15980
120.48	1598	15980
120.5	1598	15980
120.52	1598	15980
120.54	1598	15980
120.56	1598	15980
120.58	1598	15980
120.6	1599	15990
120.62	1599	15990
120.64	1599	15990
120.66	1599	15990
120.68	1599	15990
120.7	1599	15990
120.72	1599	15990
120.74	1599	15990
120.76	1599	15990
120.78	1599	15990
120.8	1599	15990
120.82	1600	16000
120.84	1600	16000
120.86	1600	16000
120.88	1600	16000
120.9	1600	16000
120.92	1600	16000
120.94	1600	16000
120.96	1600	16000
120.98	1600	16000
121	1601	16010
121.02	1601	16010
121.04	1601	16010
121.06	1601	16010
121.08	1601	16010
121.1	1601	16010
121.12	1601	16010
121.14	1601	16010
121.16	1601	16010
121.18	1601	16010
121.2	1601	16010
121.22	1602	16020
121.24	1602	16020
121.26	1602	16020
121.28	1602	16020
121.3	1602	16020
121.32	1602	16020
121.34	1602	16020
121.36	1602	16020
121.38	1602	16020
121.4	1602	16020
121.42	1602	16020
121.44	1602	16020
121.46	1603	16030
121.48	1603	16030
121.5	1603	16030
121.52	1603	16030
121.54	1603	16030
121.56	1603	16030
121.58	1603	16030
121.6	1603	16030
121.62	1603	16030
121.64	1603	16030
121.66	1603	16030
121.68	1603	16030
121.7	1603	16030
121.72	1603	16030
121.74	1604	16040
121.76	1604	16040
121.78	1604	16040
121.8	1604	16040
121.82	1604	16040
121.84	1604	16040
121.86	1604	16040
121.88	1604	16040
121.9	1604	16040
121.92	1604	16040
121.94	1604	16040
121.96	1604	16040
121.98	1604	16040
122	1604	16040
122.02	1604	16040
122.04	1604	16040
122.06	1604	16040
122.08	1604	16040
122.1	1604	16040
122.12	1604	16040
122.14	1604	16040
122.16	1604	16040
122.18	1604	16040
122.2	1605	16050
122.22	1605	16050
122.24	1605	16050
122.26	1605	16050
122.28	1605	16050
122.3	1605	16050
122.32	1605	16050
122.34	1605	16050
122.36	1605	16050
122.38	1605	16050
122.4	1605	16050
122.42	1605	16050
122.44	1605	16050
122.46	1605	16050
122.48	1605	16050
122.5	1605	16050
122.52	1605	16050
122.54	1605	16050
122.56	1605	16050
122.58	1605	16050
122.6	1605	16050
122.62	1605	16050
122.64	1605	16050
122.66	1605	16050
122.68	1605	16050
122.7	1605	16050
122.72	1605	16050
122.74	1605	16050
122.76	1605	16050
122.78	1605	16050
122.8	1605	16050
122.82	1605	16050
122.84	1605	16050
122.86	1605	16050
122.88	1605	16050
122.9	1605	16050
122.92	1605	16050
122.94	1605	16050
122.96	1605	16050
122.98	1605	16050
123	1605	16050
123.02	1605	16050
123.04	1605	16050
123.06	1605	16050
123.08	1606	16060
123.1	1606	16060
123.12	1606	16060
123.14	1606	16060
123.16	1606	16060
123.18	1606	16060
123.2	1606	16060
123.22	1606	16060
123.24	1606	16060
123.26	1606	16060
123.28	1606	16060
123.3	1606	16060
123.32	1606	16060
123.34	1606	16060
123.36	1606	16060
123.38	1606	16060
123.4	1606	16060
123.42	1606	16060
123.44	1606	16060
123.46	1606	16060
123.48	1606	16060
123.5	1606	16060
123.52	1606	16060
123.54	1606	16060
123.56	1606	16060
123.58	1606	16060
123.6	1606	16060
123.62	1606	16060
123.64	1606	16060
123.66	1606	16060
123.68	1606	16060
123.7	1606	16060
123.72	1606	16060
123.74	1606	16060
123.76	1606	16060
123.78	1606	16060
123.8	1606	16060
123.82	1606	16060
123.84	1606	16060
123.86	1606	16060
123.88	1606	16060
123.9	1606	16060
123.92	1606	16060
123.94	1606	16060
123.96	1606	16060
123.98	1606	16060
124	1606	16060
124.02	1606	16060
124.04	1606	16060
124.06	1606	16060
124.08	1606	16060
124.1	1606	16060
124.12	1606	16060
124.14	1606	16060
124.16	1606	16060
124.18	1606	16060
124.2	1606	16060
124.22	1606	16060
124.24	1606	16060
124.26	1606	16060
124.28	1606	16060
124.3	1606	16060
124.32	1606	16060
124.34	1606	16060
124.36	1606	16060
124.38	1606	16060
124.4	1606	16060
124.42	1606	16060
124.44	1606	16060
124.46	1606	16060
124.48	1606	16060
124.5	1606	16060
124.52	1606	16060
124.54	1606	16060
124.56	1606	16060
124.58	1606	16060
124.6	1606	16060
124.62	1606	16060
124.64	1606	16060
124.66	1607	16070
124.68	1607	16070
124.7	1607	16070
124.72	1607	16070
124.74	1607	16070
124.76	1607	16070
124.78	1607	16070
124.8	1607	16070
124.82	1607	16070
124.84	1607	16070
124.86	1607	16070
124.88	1607	16070
124.9	1607	16070
124.92	1607	16070
124.94	1607	16070
124.96	1607	16070
124.98	1607	16070
125	1607	16070
125.02	1607	16070
125.04	1607	16070
125.06	1607	16070
125.08	1607	16070
125.1	1607	16070
125.12	1607	16070
125.14	1607	16070
125.16	1607	16070
125.18	1607	16070
125.2	1608	16080
125.22	1608	16080
125.24	1608	16080
125.26	1608	16080
125.28	1608	16080
125.3	1608	16080
125.32	1608	16080
125.34	1608	16080
125.36	1608	16080
125.38	1608	16080
125.4	1608	16080
125.42	1608	16080
125.44	1608	16080
125.46	1608	16080
125.48	1608	16080
125.5	1608	16080
125.52	1608	16080
125.54	1608	16080
125.56	1608	16080
125.58	1608	16080
125.6	1608	16080
125.62	1608	16080
125.64	1609	16090
125.66	1609	16090
125.68	1609	16090
125.7	1609	16090
125.72	1609	16090
125.74	1609	16090
125.76	1609	16090
125.78	1609	16090
125.8	1609	16090
125.82	1609	16090
125.84	1609	16090
125.86	1609	16090
125.88	1609	16090
125.9	1609	16090
125.92	1609	16090
125.94	1609	16090
125.96	1609	16090
125.98	1609	16090
126	1609	16090
126.02	1609	16090
126.06	1609	16090
126.08	1609	16090
126.09	1609	16090
126.11	1609	16090
126.12	1609	16090
126.14	1610	16100
126.16	1610	16100
126.18	1610	16100
126.2	1610	16100
126.22	1610	16100
126.24	1610	16100
126.26	1610	16100
126.28	1610	16100
126.3	1610	16100
126.32	1610	16100
126.34	1610	16100
126.36	1610	16100
126.38	1610	16100
126.4	1610	16100
126.42	1610	16100
126.44	1610	16100
126.46	1610	16100
126.48	1611	16110
126.5	1611	16110
126.52	1611	16110
126.54	1611	16110
126.56	1611	16110
126.58	1611	16110
126.6	1611	16110
126.62	1611	16110
126.64	1611	16110
126.66	1611	16110
126.68	1611	16110
126.7	1611	16110
126.72	1611	16110
126.74	1611	16110
126.76	1611	16110
126.78	1612	16120
126.8	1612	16120
126.82	1612	16120
126.84	1612	16120
126.86	1612	16120
126.88	1612	16120
126.9	1612	16120
126.93	1612	16120
126.94	1612	16120
126.96	1612	16120
126.98	1613	16130
127	1613	16130
127.02	1613	16130
127.04	1613	16130
127.06	1613	16130
127.08	1613	16130
127.1	1613	16130
127.12	1613	16130
127.14	1613	16130
127.16	1613	16130
127.18	1613	16130
127.2	1614	16140
127.22	1614	16140
127.24	1614	16140
127.26	1614	16140
127.28	1614	16140
127.3	1614	16140
127.32	1614	16140
127.34	1614	16140
127.36	1614	16140
127.38	1614	16140
127.4	1614	16140
127.42	1615	16150
127.44	1615	16150
127.46	1615	16150
127.48	1615	16150
127.5	1615	16150
127.52	1615	16150
127.54	1615	16150
127.56	1615	16150
127.58	1615	16150
127.6	1615	16150
127.62	1616	16160
127.64	1616	16160
127.66	1616	16160
127.68	1616	16160
127.7	1616	16160
127.72	1616	16160
127.74	1616	16160
127.76	1616	16160
127.78	1616	16160
127.8	1616	16160
127.82	1617	16170
127.84	1617	16170
127.86	1617	16170
127.88	1617	16170
127.9	1617	16170
127.92	1617	16170
127.94	1617	16170
127.96	1617	16170
127.98	1617	16170
128	1617	16170
128.02	1617	16170
128.04	1617	16170
128.06	1618	16180
128.08	1618	16180
128.1	1618	16180
128.12	1618	16180
128.14	1618	16180
128.16	1618	16180
128.18	1618	16180
128.2	1618	16180
128.22	1618	16180
128.24	1618	16180
128.26	1619	16190
128.28	1619	16190
128.3	1619	16190
128.33	1619	16190
128.35	1619	16190
128.36	1619	16190
128.38	1619	16190
128.4	1619	16190
128.42	1619	16190
128.44	1620	16200
128.46	1620	16200
128.48	1620	16200
128.5	1620	16200
128.52	1620	16200
128.54	1620	16200
128.56	1620	16200
128.58	1620	16200
128.6	1620	16200
128.62	1620	16200
128.64	1620	16200
128.66	1620	16200
128.68	1620	16200
128.7	1621	16210
128.72	1621	16210
128.74	1621	16210
128.76	1621	16210
128.78	1621	16210
128.8	1621	16210
128.82	1621	16210
128.84	1621	16210
128.86	1621	16210
128.88	1622	16220
128.9	1622	16220
128.92	1622	16220
128.94	1622	16220
128.96	1622	16220
128.98	1622	16220
129	1622	16220
129.02	1622	16220
129.04	1622	16220
129.06	1623	16230
129.08	1623	16230
129.1	1623	16230
129.12	1623	16230
129.14	1623	16230
129.16	1623	16230
129.18	1623	16230
129.2	1623	16230
129.22	1624	16240
129.24	1624	16240
129.26	1624	16240
129.28	1624	16240
129.3	1624	16240
129.32	1624	16240
129.34	1624	16240
129.36	1625	16250
129.38	1625	16250
129.4	1625	16250
129.42	1625	16250
129.44	1625	16250
129.46	1625	16250
129.48	1625	16250
129.5	1625	16250
129.52	1625	16250
129.54	1626	16260
129.56	1626	16260
129.58	1626	16260
129.6	1626	16260
129.62	1626	16260
129.64	1626	16260
129.66	1626	16260
129.68	1626	16260
129.7	1627	16270
129.72	1627	16270
129.74	1627	16270
129.76	1627	16270
129.78	1627	16270
129.8	1627	16270
129.82	1627	16270
129.84	1627	16270
129.86	1628	16280
129.88	1628	16280
129.9	1628	16280
129.92	1628	16280
129.94	1628	16280
129.96	1628	16280
129.98	1628	16280
130	1628	16280
130.02	1629	16290
130.04	1629	16290
130.06	1629	16290
130.08	1629	16290
130.1	1629	16290
130.12	1629	16290
130.14	1629	16290
130.16	1629	16290
130.18	1629	16290
130.2	1630	16300
130.22	1630	16300
130.24	1630	16300
130.26	1630	16300
130.28	1630	16300
130.3	1630	16300
130.32	1630	16300
130.34	1631	16310
130.36	1631	16310
130.38	1631	16310
130.4	1631	16310
130.42	1631	16310
130.44	1631	16310
130.46	1631	16310
130.48	1632	16320
130.5	1632	16320
130.52	1632	16320
130.54	1632	16320
130.56	1632	16320
130.58	1632	16320
130.6	1632	16320
130.62	1633	16330
130.64	1633	16330
130.66	1633	16330
130.68	1633	16330
130.7	1633	16330
130.72	1633	16330
130.74	1633	16330
130.76	1634	16340
130.78	1634	16340
130.8	1634	16340
130.82	1634	16340
130.84	1634	16340
130.86	1634	16340
130.88	1634	16340
130.9	1635	16350
130.92	1635	16350
130.94	1635	16350
130.96	1635	16350
130.98	1635	16350
131	1635	16350
131.02	1635	16350
131.04	1636	16360
131.06	1636	16360
131.08	1636	16360
131.1	1636	16360
131.12	1636	16360
131.14	1636	16360
131.16	1636	16360
131.18	1637	16370
131.2	1637	16370
131.22	1637	16370
131.24	1637	16370
131.26	1637	16370
131.28	1637	16370
131.3	1638	16380
131.32	1638	16380
131.34	1638	16380
131.36	1638	16380
131.38	1638	16380
131.4	1638	16380
131.42	1638	16380
131.44	1638	16380
131.46	1639	16390
131.48	1639	16390
131.5	1639	16390
131.52	1639	16390
131.54	1639	16390
131.56	1639	16390
131.58	1639	16390
131.6	1640	16400
131.62	1640	16400
131.64	1640	16400
131.66	1640	16400
131.68	1640	16400
131.7	1640	16400
131.72	1640	16400
131.74	1641	16410
131.76	1641	16410
131.78	1641	16410
131.8	1641	16410
131.82	1641	16410
131.84	1641	16410
131.86	1641	16410
131.88	1641	16410
131.9	1642	16420
131.92	1642	16420
131.94	1642	16420
131.96	1642	16420
131.98	1642	16420
132	1642	16420
132.02	1642	16420
132.04	1643	16430
132.06	1643	16430
132.08	1643	16430
132.1	1643	16430
132.12	1643	16430
132.14	1643	16430
132.16	1643	16430
132.18	1644	16440
132.2	1644	16440
132.22	1644	16440
132.24	1644	16440
132.26	1644	16440
132.28	1644	16440
132.3	1645	16450
132.32	1645	16450
132.34	1645	16450
132.36	1645	16450
132.38	1645	16450
132.4	1645	16450
132.42	1645	16450
132.44	1645	16450
132.46	1646	16460
132.48	1646	16460
132.5	1646	16460
132.52	1646	16460
132.54	1646	16460
132.56	1646	16460
132.58	1647	16470
132.6	1647	16470
132.62	1647	16470
132.64	1647	16470
132.66	1647	16470
132.68	1647	16470
132.7	1647	16470
132.72	1647	16470
132.74	1648	16480
132.76	1648	16480
132.78	1648	16480
132.8	1648	16480
132.82	1648	16480
132.84	1648	16480
132.86	1648	16480
132.88	1649	16490
132.9	1649	16490
132.92	1649	16490
132.94	1649	16490
132.96	1649	16490
132.98	1649	16490
133	1649	16490
133.02	1649	16490
133.04	1650	16500
133.06	1650	16500
133.08	1650	16500
133.1	1650	16500
133.12	1650	16500
133.14	1650	16500
133.16	1650	16500
133.18	1650	16500
133.2	1651	16510
133.22	1651	16510
133.24	1651	16510
133.26	1651	16510
133.28	1651	16510
133.3	1651	16510
133.32	1651	16510
133.34	1651	16510
133.36	1651	16510
133.38	1652	16520
133.4	1652	16520
133.42	1652	16520
133.44	1652	16520
133.46	1652	16520
133.48	1652	16520
133.5	1652	16520
133.52	1652	16520
133.54	1653	16530
133.56	1653	16530
133.58	1653	16530
133.6	1653	16530
133.62	1653	16530
133.64	1653	16530
133.66	1653	16530
133.68	1653	16530
133.7	1653	16530
133.72	1653	16530
133.74	1654	16540
133.76	1654	16540
133.78	1654	16540
133.8	1654	16540
133.82	1654	16540
133.84	1654	16540
133.86	1654	16540
133.88	1654	16540
133.9	1655	16550
133.92	1655	16550
133.94	1655	16550
133.96	1655	16550
133.98	1655	16550
134	1655	16550
134.02	1656	16560
134.04	1656	16560
134.06	1656	16560
134.08	1656	16560
134.1	1656	16560
134.12	1656	16560
134.14	1656	16560
134.16	1656	16560
134.18	1656	16560
134.2	1656	16560
134.22	1657	16570
134.24	1657	16570
134.26	1657	16570
134.28	1657	16570
134.3	1657	16570
134.32	1657	16570
134.34	1657	16570
134.36	1658	16580
134.38	1658	16580
134.4	1658	16580
134.42	1658	16580
134.44	1658	16580
134.46	1658	16580
134.48	1658	16580
134.5	1658	16580
134.52	1659	16590
134.54	1659	16590
134.56	1659	16590
134.58	1659	16590
134.6	1659	16590
134.62	1659	16590
134.64	1659	16590
134.66	1660	16600
134.68	1660	16600
134.7	1660	16600
134.72	1660	16600
134.74	1660	16600
134.76	1660	16600
134.78	1660	16600
134.8	1661	16610
134.82	1661	16610
134.84	1661	16610
134.86	1661	16610
134.88	1661	16610
134.9	1661	16610
134.92	1661	16610
134.94	1661	16610
134.96	1662	16620
134.98	1662	16620
135	1662	16620
135.02	1662	16620
135.04	1662	16620
135.06	1662	16620
135.08	1662	16620
135.1	1662	16620
135.12	1663	16630
135.14	1663	16630
135.16	1663	16630
135.18	1663	16630
135.2	1663	16630
135.22	1663	16630
135.24	1663	16630
135.26	1663	16630
135.28	1663	16630
135.3	1663	16630
135.32	1664	16640
135.34	1664	16640
135.36	1664	16640
135.38	1664	16640
135.4	1664	16640
135.42	1664	16640
135.44	1664	16640
135.46	1664	16640
135.48	1665	16650
135.5	1665	16650
135.52	1665	16650
135.54	1665	16650
135.56	1665	16650
135.58	1665	16650
135.6	1665	16650
135.62	1665	16650
135.64	1665	16650
135.66	1666	16660
135.68	1666	16660
135.7	1666	16660
135.72	1666	16660
135.74	1666	16660
135.76	1666	16660
135.78	1666	16660
135.8	1666	16660
135.82	1667	16670
135.84	1667	16670
135.86	1667	16670
135.88	1667	16670
135.9	1667	16670

