#INFO
#COMMENT: 

#DATA:
0.5285315	1.5692e-005	0.00261502656	
0.5285103	2.1163e-005	0.00260845337	
0.5285103	4.5527e-005	0.00260344611	
0.5285315	4.6146e-005	0.0025949175	
0.5285315	4.2017e-005	0.00258585004	
0.5285315	5.8947e-005	0.00257533666	
0.5285315	7.9491e-005	0.00256439381	
0.5286373	8.011e-005	0.00255070855	
0.5287219	8.362e-005	0.00253915746	
0.5288065	2.6325e-005	0.00251035975	
0.5289758	2.075e-005	0.0024902907	
0.5307107	3.2519e-005	0.00246699911	
0.5322129	1.4969e-005	0.00243323416	
0.5335988	3.716e-006	0.00241132974	
0.5348153	1.7756e-005	0.0023915995	
0.5355876	3.716e-006	0.00238184377	
0.5371956	7.226e-006	0.00235828274	
0.5386766	3.6132e-005	0.00233185927	
0.5406654	2.7564e-005	0.00230756996	
0.543014	4.8624e-005	0.00227935113	
0.5446114	5.5231e-005	0.00224727215	
0.5458068	3.8713e-005	0.00223705758	
0.5475417	5.0998e-005	0.00223198094	
0.5500066	8.3207e-005	0.00222543711	
0.553286	5.936e-005	0.00222520769	
0.5546613	5.4921e-005	0.00223913302	
0.5561423	3.5926e-005	0.00225794557	
0.5574753	3.3138e-005	0.00227258853	
0.5586707	4.2946e-005	0.00228624442	
0.5600777	3.4377e-005	0.0023084983	
0.5616857	3.1487e-005	0.0023213459	
0.5627859	3.8816e-005	0.00233943017	
0.5639919	2.7977e-005	0.00235419316	
0.5653248	2.137e-005	0.00236386887	
0.5660442	3.8197e-005	0.00237300572	
0.5668905	2.9732e-005	0.00239269595	
0.5680647	2.6531e-005	0.00240826724	
0.5692072	3.2106e-005	0.00242596205	
0.5703286	2.9525e-005	0.00245204671	
0.571048	2.7151e-005	0.0024764454	
0.571852	2.0647e-005	0.00251377171	
0.5726983	2.5705e-005	0.00254696843	
0.5736715	2.7564e-005	0.00258455353	
0.5742005	1.9615e-005	0.00261429829	
0.5748987	2.1473e-005	0.00265644245	
0.5755969	3.1693e-005	0.00269877602	
0.5761681	2.808e-005	0.00273750822	
0.5768452	2.1886e-005	0.00276737301	
0.5773107	1.8582e-005	0.00279460478	
0.5776703	2.4054e-005	0.00280955718	
0.5781993	1.3833e-005	0.00282943682	
0.5787706	2.808e-005	0.00286393005	
0.5793841	2.2195e-005	0.00288650401	
0.5799554	1.9202e-005	0.00289086302	
0.5806113	2.488e-005	0.00291160968	
0.5812672	2.6531e-005	0.00292595384	
0.5818384	2.2505e-005	0.00293616842	
0.5826424	1.8582e-005	0.00293712612	
0.5837849	2.6222e-005	0.0029455747	
0.5843879	2.4776e-005	0.00294778889	
0.5854035	2.0131e-005	0.00296290134	
0.5863979	1.7963e-005	0.00299066132	
0.5871596	3.0867e-005	0.00301184811	
0.588281	2.7873e-005	0.00308947256	
0.5896562	2.3331e-005	0.00321310133	
0.5910103	2.2402e-005	0.00335260018	
0.5921634	2.4054e-005	0.00355213805	
0.5932319	2.2092e-005	0.00383492653	
0.5943109	2.3021e-005	0.00412493645	
0.5946918	1.5588e-005	0.00432123307	
0.5951995	2.395e-005	0.00452167798	
0.5960459	1.7137e-005	0.00480209222	
0.5967652	1.6105e-005	0.00506617753	
0.5976327	2.6944e-005	0.00532147545	
0.5981828	2.4054e-005	0.00558112173	
0.5989656	1.3833e-005	0.00584379049	
0.599685	2.0028e-005	0.00609112804	
0.6005313	1.9718e-005	0.00638363224	
0.6017584	1.9408e-005	0.00673295292	
0.6028798	1.5898e-005	0.00711485143	
0.6041493	1.9098e-005	0.00742778478	
0.6053024	2.7977e-005	0.00774336986	
0.6058313	1.8582e-005	0.00807922405	
0.6066141	1.4866e-005	0.00841130876	
0.6076932	2.0544e-005	0.00878572704	
0.6085818	2.457e-005	0.00905882915	
0.60928	1.6621e-005	0.00929450622	
0.6098936	1.8582e-005	0.00957721468	
0.6107505	2.0337e-005	0.00992837072	
0.6115862	2.5189e-005	0.0103302395	
0.6126018	2.1163e-005	0.0106083596	
0.6136808	2.3641e-005	0.0108808935	
0.6146118	3.4584e-005	0.011119553	
0.6150561	3.9126e-005	0.0114212341	
0.6155956	3.3242e-005	0.0117012188	
0.616114	4.0055e-005	0.0120530231	
0.6167487	4.8624e-005	0.0123034232	
0.6171507	5.0895e-005	0.0124507623	
0.6175527	4.532e-005	0.0125217442	
0.6179124	5.234e-005	0.0126690034	
0.6185048	5.8431e-005	0.0128459779	
0.6190337	6.4212e-005	0.0130481488	
0.6194781	6.9683e-005	0.0131940021	
0.6198166	7.8458e-005	0.0133476851	
0.6201551	8.0523e-005	0.0134100983	
0.620483	8.073e-005	0.0135207195	
0.6209485	8.682e-005	0.0136843182	
0.6214775	9.766e-005	0.0138419413	
0.6219429	0.000100344	0.0139543685	
0.6222391	0.000102512	0.0140351354	
0.6224507	0.000107158	0.0141273628	
0.6227892	0.000125017	0.0142457149	
0.6232336	0.000126463	0.0143716779	
0.6236356	0.000130592	0.0144456022	
0.6239106	0.000137818	0.0145122145	
0.6241857	0.000138541	0.0146166118	
0.6245665	0.000149484	0.0147575566	
0.6248415	0.000155678	0.0149064724	
0.6251483	0.00016373	0.0150063107	
0.6254128	0.000172402	0.0151367927	
0.6261956	0.000179938	0.0152766304	
0.6268727	0.000189332	0.0154544533	
0.6273593	0.000210083	0.0156001465	
0.6275074	0.000217516	0.0157382582	
0.6279517	0.000225981	0.0159167399	
0.6285441	0.000242292	0.0161364269	
0.6292638	0.000261803	0.0163319445	
0.6296658	0.000274191	0.0165145052	
0.6301736	0.000287509	0.0166795792	
0.630491	0.000297832	0.0167498729	
0.6312526	0.000311975	0.0169536203	
0.6319508	0.000329422	0.0171535664	
0.6323528	0.000337474	0.0172536448	
0.6327337	0.000348004	0.0173612541	
0.6330299	0.000362251	0.0175019	
0.6333684	0.000373193	0.0177030438	
0.6337704	0.000385995	0.0178917989	
0.633982	0.000409429	0.018156183	
0.6345004	0.000431315	0.0184772555	
0.6352303	0.000444632	0.018619398	
0.6356746	0.000455059	0.0188048905	
0.635992	0.000480661	0.0190379346	
0.6364363	0.000487681	0.019183209	
0.6369229	0.000496249	0.0193506972	
0.6372085	0.00051287	0.0194909937	
0.6373355	0.000518238	0.0196486275	
0.6379596	0.000537646	0.0198923637	
0.63888	0.00055086	0.0201301456	
0.6393666	0.000565107	0.0203187512	
0.6399167	0.000585857	0.020551934	
0.641694	0.000604439	0.0209285959	
0.6422229	0.000617343	0.0212217483	
0.6429635	0.000638507	0.0215204763	
0.643577	0.00064883	0.0216746981	
0.6438944	0.000653785	0.021898704	
0.6441483	0.000666896	0.0220173255	
0.6444022	0.00067371	0.0222067795	
0.6447195	0.000682794	0.0223411511	
0.6450369	0.000685478	0.0224909339	
0.6453754	0.000690537	0.0226635201	
0.6457351	0.000708087	0.0227919667	
0.645989	0.000709635	0.0229528711	
0.6462641	0.000713249	0.0231314916	
0.6465814	0.00072543	0.0233257128	
0.64692	0.000737818	0.023546168	
0.6471738	0.000745767	0.0236965297	
0.6477028	0.000749277	0.0238340838	
0.6481048	0.000753304	0.0240165538	
0.6485279	0.000768582	0.024266455	
0.6487818	0.000774776	0.0245357076	
0.6493108	0.000782106	0.0247666362	
0.6496281	0.000798417	0.0249353622	
0.6499455	0.000808328	0.0252915255	
0.6508553	0.000812354	0.0255152327	
0.6516804	0.000819993	0.0257105209	
0.6523575	0.000832588	0.0259171309	
0.652696	0.000839401	0.026164199	
0.6529393	0.000841363	0.0263377829	
0.6531403	0.000852925	0.0264575408	
0.6534577	0.000853028	0.0266498573	
0.6538597	0.000876463	0.0269392883	
0.6542617	0.000879456	0.0271484219	
0.6545367	0.000877082	0.0272257475	
0.6549599	0.000890606	0.027473664	
0.6557745	0.000903407	0.0278083017	
0.6563457	0.000917756	0.0280601876	
0.6573613	0.000927048	0.0284056481	
0.6582288	0.000941088	0.0286769655	
0.6590116	0.000967516	0.028887545	
0.6596569	0.000970509	0.0291777844	
0.6607042	0.000980523	0.0293701408	
0.6616352	0.000995079	0.0295458189	
0.6625238	0.001016759	0.0298180033	
0.6631585	0.001031831	0.0301639627	
0.6639625	0.001041845	0.0302576866	
0.665105	0.001060014	0.0304674391	
0.6656975	0.001057123	0.0308006602	
0.6664591	0.00106373	0.0309715898	
0.6675805	0.001060943	0.0312912057	
0.6683527	0.001050929	0.0315722389	
0.6689134	0.001020269	0.0318648124	
0.6696751	0.00099095	0.0320394128	
0.6699925	0.000980317	0.0321801788	
0.6700136	0.000950895	0.0322914081	
0.670606	0.000926325	0.0324505678	
0.6709023	0.000891638	0.0326179467	
0.6710927	0.000861803	0.0327727768	
0.6711773	0.000835582	0.0329064307	
0.6719072	0.000789332	0.0330733907	
0.6725843	0.000755884	0.0333338347	
0.6729757	0.000696421	0.0334479878	
0.6735787	0.000656676	0.0336427772	
0.6737057	0.000616105	0.0337218582	
0.6739701	0.000553648	0.0338474423	
0.6742981	0.000549209	0.0341186103	
0.6748905	0.000484893	0.0342753052	
0.6753136	0.000448658	0.0343654384	
0.6756733	0.000402822	0.0345094563	
0.6761388	0.000369374	0.0345720883	
0.6764562	0.000338403	0.0345811558	
0.6770063	0.000302787	0.0347301409	
0.6776939	0.000266139	0.0348629466	
0.6781276	0.000226807	0.0349688299	
0.6787835	0.000195527	0.0352428603	
0.6793548	0.000173125	0.0353705493	
0.6801059	0.000133379	0.0354867165	
0.6808147	9.9002e-005	0.0355208309	
0.6813648	8.2485e-005	0.0357942825	
0.6821899	6.2973e-005	0.0356806789	
0.682465	5.2237e-005	0.0358350501	
0.6827083	4.7901e-005	0.0358913384	
0.6827294	4.8624e-005	0.0358264522	
0.6829939	4.883e-005	0.036073699	
0.6832266	3.1177e-005	0.0363593206	
0.6838191	2.5809e-005	0.0363452965	
0.6841576	3.3242e-005	0.0364540823	
0.6844538	2.9422e-005	0.0365328138	
0.6851732	2.2608e-005	0.0369548317	
0.6854905	2.5086e-005	0.0371089441	
0.6861464	2.1266e-005	0.0370707001	
0.6868658	1.786e-005	0.0373704258	
0.6874159	1.9511e-005	0.0375209475	
0.6884526	1.5279e-005	0.0378683528	
0.6889604	2.2918e-005	0.0381393314	
0.6890239	1.7756e-005	0.0383290629	
0.689976	1.1253e-005	0.0387484077	
0.6908117	1.9408e-005	0.0389379311	
0.6915734	1.755e-005	0.0391960514	
0.6924832	1.2285e-005	0.0393999483	
0.6930544	1.1872e-005	0.0395372623	
0.6934353	1.435e-005	0.0397351649	
0.6941123	1.8685e-005	0.0399979431	
0.6949586	1.1666e-005	0.0402086826	
0.6953395	2.1783e-005	0.0403029054	
0.6957626	1.0943e-005	0.0405528466	
0.6965666	7.949e-006	0.040693802	
0.6968417	2.2712e-005	0.0409832037	
0.6971379	2.2918e-005	0.041153525	
0.6976668	1.6001e-005	0.041249802	
0.6977938	2.0544e-005	0.0416880394	
0.6982804	1.7653e-005	0.0417808457	
0.6992431	1.8273e-005	0.0418438272	
0.7004385	1.4143e-005	0.0421397727	
0.7013483	6.091e-006	0.0425483935	
0.7022792	1.6414e-005	0.0430667896	
0.7036121	1.6827e-005	0.043370146	
0.7046277	-3.097e-006	0.04397668	
0.7062569	1.9098e-005	0.0445212489	
0.7080341	1.5072e-005	0.044806641	
0.709568	1.7756e-005	0.0452163796	
0.7106153	1.7653e-005	0.0453374847	
0.711705	1.1666e-005	0.0456927009	
0.7128475	2.06e-007	0.0457200421	
0.7140323	1.1562e-005	0.0460791985	
0.7150902	7.639e-006	0.0463251089	
0.7160635	2.0028e-005	0.0465484666	
0.7173329	1.3317e-005	0.0466891232	
0.718285	1.1253e-005	0.0468453298	
0.7189621	1.2801e-005	0.0468273949	
0.7194064	1.2388e-005	0.0470450677	
0.7203796	1.8582e-005	0.0471889256	
0.7209826	1.2904e-005	0.0471928151	
0.7222733	1.3317e-005	0.0474406115	
0.7232783	7.639e-006	0.0476092175	
0.7241246	1.2078e-005	0.047475873	
0.7248862	7.949e-006	0.0480562823	
0.7264519	1.9615e-005	0.0484091243	
0.7282821	1.7963e-005	0.0484607148	
0.7301439	1.2595e-005	0.0486468955	
0.732228	1.435e-005	0.0487971772	
0.734037	1.6724e-005	0.0487308344	
0.7361739	2.0131e-005	0.04876461	
0.7376973	1.084e-005	0.0489491555	
0.7394957	1.1459e-005	0.0489148116	
0.7416749	2.2195e-005	0.0488411674	
0.7433781	1.4763e-005	0.0488425333	
0.7457055	1.0633e-005	0.0491572513	
0.7482444	1.2491e-005	0.0491653611	
0.7502755	1.8789e-005	0.0489044077	
0.7515238	1.6311e-005	0.0487256777	
0.7529203	1.2285e-005	0.0488916801	
0.753957	9.498e-006	0.0487520612	
0.7552899	1.3524e-005	0.0488998192	
0.7564748	1.4659e-005	0.0492136196	
0.7579135	7.433e-006	0.048912368	
0.7597331	1.7963e-005	0.0486550453	
0.7617113	1.4763e-005	0.04855784	
0.7633828	1.6208e-005	0.0486157743	
0.7646522	1.4453e-005	0.0483455639	
0.765689	1.3421e-005	0.0483659424	
0.7670219	1.6105e-005	0.0483582621	
0.7680163	1.0427e-005	0.0478156674	
0.769857	1.2698e-005	0.0475561705	
0.771867	1.3833e-005	0.0471369857	
0.7733904	1.4556e-005	0.0468816984	
0.7750724	1.1975e-005	0.0468442227	
0.775961	1.5692e-005	0.0463191146	
0.7774315	1.3524e-005	0.0459475987	
0.7791136	1.2904e-005	0.0457804599	
0.7806792	1.0736e-005	0.045783213	
0.781917	1.3008e-005	0.0456965211	
0.7825834	1.8685e-005	0.0454430292	
