# Messung des Generatorstromes
# Der Generator wurde über einen 1 Ohm Widerstand kurzgeschlossen
# und die Spannung darauf in mV abgegriffen.
# Deshalb gibt das Signal den Strom in mA an.
#
# Spalte1: t [s]
# Spalte2: Generatorstrom I [mA]
# Spalte3: Spulenstrom I_S [A]
# Spalte4: Magnetfeld B [mT]
0	3.705	0	9.9
1	3.705	0	9.9
2	3.705	0	9.9
3	3.71	0	9.9
4	3.71	0	9.9
5	4.745	0.3645	64.5
6	5.985	0.7695	116.1
7	5.76	0.663	106.8
8	4.545	0.225	47.1
9	3.775	0	13.8
10	3.765	0	13.65
11	3.765	0	13.65
12	3.765	0	13.65
13	3.76	0	13.65
14	3.755	0	13.65
15	3.755	0	13.65
16	3.75	0	13.65
17	3.745	0	13.65
18	3.735	0	13.65
19	3.73	0	13.65
20	3.73	0	13.65
21	3.725	0	13.65
22	3.725	0	13.65
23	3.72	0	13.65
24	3.72	0	13.65
25	3.725	0	13.65
26	3.725	0	13.65
27	3.725	0	13.65
28	3.73	0.0015	13.8
29	3.755	0.0105	15
30	3.86	0.0465	19.95
31	3.94	0.0735	24
32	4.05	0.1065	28.65
33	4.11	0.129	31.8
34	4.23	0.171	37.95
35	4.365	0.2145	44.1
36	4.46	0.243	48.45
37	4.51	0.264	51.45
38	4.605	0.291	55.8
39	4.65	0.312	58.35
40	4.735	0.3345	62.1
41	4.77	0.345	63.9
42	4.84	0.3675	67.5
43	4.915	0.39	70.95
44	5.03	0.429	76.8
45	5.16	0.4725	82.8
46	5.215	0.492	85.2
47	5.28	0.5175	88.5
48	5.355	0.5505	92.55
49	5.455	0.594	97.5
50	5.52	0.621	100.8
51	5.595	0.657	104.7
52	5.68	0.7005	109.05
53	5.735	0.729	111.9
54	5.78	0.753	114.15
55	5.815	0.774	115.95
56	5.86	0.7965	118.05
57	5.88	0.81	119.4
58	5.885	0.8265	120.75
59	5.895	0.8535	123.15
60	5.935	0.87	124.65
61	6	0.9015	127.2
62	6.065	0.9315	129.9
63	6.115	0.9525	131.85
64	6.17	0.984	133.95
65	6.23	1.0095	136.2
66	6.29	1.0395	138.75
67	6.32	1.059	139.95
68	6.365	1.077	141.6
69	6.37	1.08	141.75
70	6.4	1.095	142.8
71	6.415	1.098	143.1
72	6.45	1.122	144.75
73	6.5	1.1565	147.3
74	6.575	1.1985	150.45
75	6.65	1.2465	153.6
76	6.71	1.2825	156
77	6.76	1.317	158.4
78	6.78	1.3365	159.45
79	6.815	1.362	161.25
80	6.865	1.3965	163.5
81	6.92	1.4355	165.75
82	6.94	1.4535	166.95
83	6.965	1.4715	168.15
84	6.98	1.4865	168.9
85	7.02	1.5225	171
86	7.075	1.5675	173.55
87	7.12	1.6065	175.65
88	7.135	1.6245	176.85
89	7.17	1.6635	178.95
90	7.195	1.6905	180.3
91	7.24	1.7385	183
92	7.3	1.7865	185.55
93	7.305	1.794	185.7
94	7.295	1.794	185.85
95	7.29	1.7925	185.85
96	7.285	1.791	185.7
97	7.285	1.791	185.7
98	7.25	1.7625	184.35
99	7.21	1.728	182.7
100	7.16	1.68	180.45
101	7.11	1.6425	178.65
102	7.085	1.629	177.9
103	7.055	1.6035	176.55
104	7	1.5555	174
105	6.95	1.5135	171.9
106	6.9	1.4835	170.25
107	6.865	1.4535	168.45
108	6.815	1.41	165.9
109	6.775	1.3755	163.95
110	6.73	1.338	161.7
111	6.675	1.299	159.3
112	6.635	1.2645	157.2
113	6.605	1.245	155.7
114	6.54	1.197	153
115	6.49	1.1625	150.6
116	6.46	1.1415	149.1
117	6.375	1.0815	144.75
118	6.285	1.026	140.7
119	6.24	1.008	139.05
120	6.225	0.999	138.3
121	6.205	0.9825	137.25
122	6.18	0.963	135.6
123	6.145	0.9465	134.4
124	6.125	0.9285	133.2
125	6.055	0.8955	130.05
126	6.035	0.876	128.7
127	5.975	0.8415	125.55
128	5.93	0.816	123.3
129	5.88	0.786	120.6
130	5.825	0.753	117.75
131	5.76	0.7215	114.9
132	5.72	0.6945	112.2
133	5.66	0.6645	109.2
134	5.595	0.6345	106.2
135	5.52	0.597	102.15
136	5.45	0.567	98.55
137	5.38	0.537	95.1
138	5.33	0.5145	92.4
139	5.26	0.4845	88.5
140	5.185	0.4845	84.9
141	5.125	0.4575	81.75
142	5.05	0.435	78.15
143	4.98	0.411	78.15
144	4.9	0.3855	74.7
145	4.845	0.3585	70.8
146	4.77	0.339	67.8
147	4.68	0.3135	64.05
148	4.585	0.288	59.55
149	4.52	0.2595	54.9
150	4.425	0.2385	51.3
151	4.345	0.207	46.8
152	4.27	0.18	42.6
153	4.18	0.153	38.7
154	4.095	0.1275	34.8
155	4.015	0.102	30.9
156	3.97	0.0765	26.85
157	3.9	0.0645	25.05
158	3.81	0.042	21.45
159	3.755	0.0135	17.25
160	3.755	0	15
161	3.76	0	14.85
162	3.76	0	14.85
163	3.76	0	14.85
164	3.76	0	14.85
165	3.76	0	14.85
166	3.76	0	14.85
167	3.765	0	14.85
168	3.76	0	14.85
169	3.755	0	14.85
170	3.755	0	14.85
171	3.755	0	14.85
172	3.755	0	14.85
173	3.755	0	14.85
174	3.755	0	14.85
175	3.76	0	14.85
176	3.76	0	14.85
177	3.765	0	14.85
178	3.775	0	14.85
179	3.785	0	14.85
180	3.8	0	14.85
181	3.805	0	14.85
182	3.81	0	14.85
183	3.815	0	14.85
184	3.82	0	14.85
185	3.825	0	14.85
186	3.835	0	14.85
187	3.835	0	14.85
188	3.835	0	14.85
189	3.83	0	14.85
190	3.825	0	14.85
191	3.815	0	14.85
192	3.805	0	14.85
193	3.8	0	14.85
194	3.79	0	14.85
195	3.785	0	14.85
196	3.775	0	14.85
197	3.77	0	14.85
198	3.77	0	14.85
199	3.76	0	14.85
200	3.755	0	14.85
201	3.75	0	14.85
202	3.75	0	14.85
203	3.745	0	14.85
204	3.74	0	14.85
205	3.735	0	14.85
206	3.73	0	14.85
207	3.73	0	14.85
208	3.73	0	14.85
209	3.73	0	14.85
210	3.725	0	14.85
211	3.725	0	14.85
212	3.725	0	14.85
213	3.72	0	14.85
214	3.72	0	14.85
215	3.72	0	14.85
216	3.72	0	14.85
217	3.715	0	14.85
218	3.715	0	14.85
219	3.715	0	14.85
220	3.72	0	14.85
221	3.72	0	14.85
222	3.715	0	14.85
223	3.715	0	14.85
224	3.715	0	14.85
225	3.71	0	14.85
226	3.71	0	14.85
227	3.705	0	14.85
228	3.705	0	14.85
229	3.7	0	14.85
230	3.7	0	14.85
231	3.7	0	14.85
232	3.7	0	14.85
233	3.7	0	14.85
234	3.695	0	14.85
235	3.695	0	14.85
236	3.69	0	14.85
237	3.685	0	14.85
238	3.675	0	14.85
239	3.575	-0.0075	13.65
240	3.395	-0.042	8.25
241	3.185	-0.105	-1.35
242	3.13	-0.1545	-9
243	2.98	-0.18	-12.75
244	2.84	-0.225	-19.8
245	2.74	-0.264	-25.8
246	2.63	-0.297	-30.75
247	2.505	-0.3285	-35.55
248	2.34	-0.369	-42
249	2.225	-0.42	-50.25
250	2.165	-0.444	-53.55
251	1.99	-0.483	-58.8
252	1.875	-0.5355	-66
253	1.775	-0.5805	-71.55
254	1.685	-0.618	-76.05
255	1.59	-0.6585	-80.4
256	1.555	-0.6975	-84.45
257	1.48	-0.7155	-86.25
258	1.43	-0.753	-89.85
259	1.41	-0.7755	-92.1
260	1.345	-0.786	-93.15
261	1.29	-0.8265	-96.6
262	1.24	-0.8505	-98.85
263	1.185	-0.8745	-100.95
264	1.09	-0.9225	-104.85
265	1.03	-0.963	-108.3
266	0.975	-1.005	-111.75
267	0.945	-1.029	-113.7
268	0.88	-1.0575	-115.65
269	0.855	-1.0875	-118.05
270	0.82	-1.1025	-119.25
271	0.755	-1.137	-121.65
272	0.745	-1.167	-124.05
273	0.675	-1.188	-125.25
274	0.625	-1.239	-128.85
275	0.595	-1.2645	-130.65
276	0.515	-1.305	-133.35
277	0.48	-1.347	-136.05
278	0.4	-1.386	-138.45
279	0.32	-1.443	-142.05
280	0.26	-1.5135	-146.1
281	0.205	-1.5585	-148.8
282	0.15	-1.608	-151.65
283	0.095	-1.6515	-153.6
284	0.025	-1.7115	-156.9
285	0.02	-1.761	-159.6
286	0.02	-1.761	-159.6
287	0.02	-1.764	-159.75
288	0.03	-1.7625	-159.75
289	0.055	-1.761	-159.6
290	0.15	-1.7175	-157.65
291	0.26	-1.623	-153.15
292	0.38	-1.5255	-148.2
293	0.5	-1.4265	-142.65
294	0.59	-1.338	-137.25
295	0.68	-1.266	-133.05
296	0.755	-1.203	-128.85
297	0.845	-1.1505	-125.1
298	0.945	-1.0845	-120.6
299	1.045	-1.023	-115.95
300	1.135	-0.96	-111.3
301	1.19	-0.9105	-106.95
302	1.325	-0.864	-103.2
303	1.46	-0.789	-96.6
304	1.555	-0.7185	-90.3
305	1.64	-0.6735	-85.8
306	1.775	-0.6225	-80.55
307	1.89	-0.564	-74.1
308	2.055	-0.507	-67.05
309	2.19	-0.4515	-59.55
310	2.33	-0.402	-52.35
311	2.415	-0.3645	-47.1
312	2.575	-0.327	-41.25
313	2.76	-0.279	-33.45
314	2.965	-0.2145	-23.25
315	3.085	-0.159	-15
316	3.275	-0.1125	-7.65
317	3.395	-0.0615	0
318	3.485	-0.0195	6.3
319	3.49	0	9.45
320	3.48	0	9.45
321	3.475	0	9.45
322	3.475	0	9.45
323	3.47	0	9.45
324	3.465	0	9.45
325	3.46	0	9.45
326	3.45	0	9.45
327	3.445	0	9.45
328	3.435	0	9.45
329	3.43	0	9.6
330	3.425	0	9.6
331	3.42	0	9.6
332	3.415	0	9.6
333	3.41	0	9.45
334	3.4	0	9.6
335	3.395	0	9.6
336	3.39	0	9.6
337	3.39	0	9.6
338	3.385	0	9.6
339	3.38	0	9.6
340	3.375	0	9.6
341	3.375	0	9.6
342	3.37	0	9.6
343	3.37	0	9.6
344	3.365	0	9.6
345	3.37	0	9.6
346	3.365	0	9.6
347	3.36	0	9.6
348	3.355	0	9.6
349	3.355	0	9.6
350	3.355	0	9.6
351	3.35	0	9.6
352	3.345	0	9.6
353	3.34	0	9.6
354	3.34	0	9.6
355	3.335	0	9.6
356	3.335	0	9.6
357	3.33	0	9.45
358	3.32	0	9.45
359	3.32	0	9.6
360	3.315	0	9.45
361	3.315	-0.0015	9.45
362	3.31	0	9.45
363	3.305	0	9.45
364	3.305	0	9.45
365	3.3	0	9.45
366	3.3	0	9.45
367	3.3	0	9.45
368	3.3	0	9.45
369	3.3	0	9.45
370	3.3	0	9.45
371	3.3	0	9.45
372	3.3	0	9.45
373	3.305	0	9.45
374	3.31	0	9.45
375	3.31	0	9.45
376	3.315	0	9.45
377	3.315	0	9.45
378	3.31	0	9.6
379	3.31	0	9.6
380	3.31	0	9.6
381	3.31	0	9.6
382	3.305	0	9.6
383	3.305	0	9.6
384	3.3	0	9.6
385	3.295	0	9.6
386	3.295	0	9.45
387	3.3	0	9.45
388	3.3	0	9.45
389	3.295	0	9.45
390	3.29	0	9.45
391	3.25	-0.0105	8.25
392	3.225	-0.024	6.3
393	3.185	-0.033	4.95
394	3.18	-0.048	3
395	3.115	-0.054	2.25
396	3.035	-0.081	-1.2
397	3	-0.1065	-4.65
398	3	-0.111	-5.4
399	3.015	-0.1095	-5.25
400	3.01	-0.105	-4.65
401	3.015	-0.105	-4.65
402	3.03	-0.096	-3.9
403	3.025	-0.093	-3.45
404	3.03	-0.0945	-3.45
405	3.04	-0.0855	-2.25
406	3.05	-0.0855	-2.1
407	3.06	-0.075	-0.9
408	3.07	-0.0735	-0.45
409	3.065	-0.0705	0
410	3.06	-0.0705	0
411	3.055	-0.0705	0
412	3.05	-0.0705	0
413	3.04	-0.0705	0
414	3.03	-0.0705	0
415	3.02	-0.0705	0
416	3.015	-0.069	0
417	3.01	-0.0705	0
418	3.01	-0.0705	-0.15
419	3.005	-0.0705	-0.15
420	3	-0.0705	0
421	3	-0.0705	0
422	2.995	-0.069	0
423	2.99	-0.0705	0
424	2.985	-0.0705	0
425	2.985	-0.0705	0
426	2.985	-0.0705	-0.15
427	2.98	-0.0705	-0.15
428	2.98	-0.0705	0
429	2.98	-0.0705	0
430	2.975	-0.0705	0
431	2.975	-0.0705	0
432	2.975	-0.0705	-0.15
433	2.97	-0.0705	0
434	2.97	-0.0705	-0.15
435	2.97	-0.069	0
436	2.975	-0.0705	-0.15
437	2.97	-0.0705	-0.15
438	2.965	-0.0705	0
439	2.965	-0.0705	0
440	2.965	-0.0705	0
441	2.97	-0.0705	0
442	2.965	-0.069	0
443	2.97	-0.0705	0
444	2.97	-0.0705	0
445	2.97	-0.0705	0
446	2.975	-0.0705	0
447	2.98	-0.0705	-0.15
448	2.98	-0.0705	0
449	2.985	-0.0705	0
450	2.98	-0.0705	-0.15
451	2.98	-0.0705	0
452	2.975	-0.0705	-0.15
453	2.975	-0.069	-0.15
454	2.975	-0.0705	-0.15
455	2.975	-0.069	0
456	2.975	-0.0705	-0.15
457	2.975	-0.0705	-0.15
458	2.97	-0.0705	0
459	2.97	-0.0705	-0.15
460	2.965	-0.0705	0
461	2.965	-0.0705	0
462	2.965	-0.069	0
463	2.965	-0.0705	0
464	2.965	-0.0705	0
465	2.965	-0.0705	0
466	2.965	-0.0705	0
467	2.96	-0.0705	0
468	2.96	-0.0705	0
469	2.96	-0.0705	0
470	2.955	-0.0705	0
471	2.96	-0.0705	0
472	2.96	-0.0705	0
473	2.955	-0.0705	0
474	2.965	-0.0705	0
475	2.98	-0.0705	0
476	2.975	-0.0705	0
477	2.975	-0.0705	0
478	2.975	-0.0705	0
479	2.97	-0.0705	0
480	2.965	-0.069	0
481	2.965	-0.0705	0
482	2.965	-0.0705	0
483	2.96	-0.0705	0
484	2.96	-0.0705	0
485	2.955	-0.0705	0
486	2.955	-0.0705	0
487	2.955	-0.0705	0
488	2.955	-0.0705	0
489	2.95	-0.0705	0
490	2.945	-0.0705	0
491	2.945	-0.0705	0
492	2.945	-0.0705	0
493	2.94	-0.0705	-0.15
494	2.94	-0.0705	0
495	2.94	-0.0705	0
496	2.945	-0.0705	-0.15
497	2.945	-0.0705	0
498	2.95	-0.0705	0
499	2.955	-0.0705	0
500	2.955	-0.0705	0
501	2.95	-0.0705	0
502	2.95	-0.0705	0
503	2.95	-0.0705	0
504	2.945	-0.0705	0
505	2.945	-0.0705	0
506	2.95	-0.0705	0
507	2.95	-0.0705	0
508	2.95	-0.0705	0
509	2.95	-0.072	0
510	2.945	-0.0705	0
511	2.95	-0.0705	0
512	2.95	-0.0705	0
513	2.95	-0.0705	0
514	2.945	-0.0705	-0.15
515	2.945	-0.0705	0
516	2.945	-0.0705	-0.15
517	2.945	-0.0705	0
518	2.995	-0.0675	0.15
519	3.1	-0.039	3.9
520	3.15	-0.006	8.7
521	3.15	0	9.45
522	3.155	0	9.6
523	3.16	0	9.45
524	3.16	0	9.6
525	3.155	0	9.6
526	3.155	0	9.6
527	3.17	0.03	14.1
528	3.39	0.12	27.9
529	3.69	0.1995	40.5
530	3.875	0.2415	46.5
531	3.97	0.276	51.9
532	4.09	0.312	57.45
533	4.18	0.336	61.35
534	4.27	0.369	66.75
535	4.365	0.399	71.25
536	4.46	0.426	75.3
537	4.535	0.45	78.9
538	4.61	0.48	83.1
539	4.705	0.522	88.65
540	4.83	0.564	93.9
541	4.905	0.5985	97.95
542	5	0.633	101.85
543	5.065	0.6675	105.6
544	5.155	0.72	111
545	5.26	0.759	114.75
546	5.305	0.786	117
547	5.365	0.8265	120.9
548	5.46	0.8715	124.95
549	5.5	0.906	127.8
550	5.595	0.9675	132.9
551	5.69	1.0155	136.65
552	5.755	1.056	139.8
553	5.815	1.0935	142.8
554	5.87	1.143	146.4
555	5.955	1.1955	150.3
556	6.015	1.236	153.15
557	6.07	1.2735	155.4
558	6.115	1.3185	158.4
559	6.165	1.365	161.4
560	6.235	1.404	163.8
561	6.27	1.446	166.35
562	6.32	1.4805	168.6
563	6.36	1.515	170.55
564	6.39	1.551	172.65
565	6.44	1.608	175.65
566	6.495	1.668	179.1
567	6.555	1.713	181.5
568	6.595	1.7535	183.6
569	6.63	1.773	184.5
570	6.625	1.77	184.5
571	6.62	1.755	183.9
572	6.58	1.7115	181.95
573	6.535	1.6725	180
574	6.49	1.6305	177.9
575	6.445	1.599	176.25
576	6.415	1.5615	174.15
577	6.36	1.5165	171.9
578	6.295	1.4775	169.8
579	6.255	1.437	167.55
580	6.21	1.395	164.85
581	6.15	1.3365	161.55
582	6.07	1.278	157.8
583	6	1.2285	154.8
584	5.935	1.173	151.35
585	5.865	1.128	148.05
586	5.81	1.098	145.65
587	5.765	1.062	143.1
588	5.705	1.023	140.25
589	5.655	0.993	138
590	5.605	0.963	135.6
591	5.555	0.9345	133.2
592	5.48	0.873	128.25
593	5.375	0.822	123.9
594	5.285	0.7725	119.4
595	5.175	0.7245	115.05
596	5.12	0.7005	112.8
597	5.06	0.6675	109.5
598	4.995	0.639	106.65
599	4.925	0.609	103.65
600	4.86	0.5835	100.5
601	4.79	0.552	96.9
602	4.73	0.5385	95.4
603	4.695	0.525	93.75
604	4.67	0.513	92.25
605	4.62	0.4755	87.3
606	4.465	0.417	79.05
607	4.325	0.396	76.2
608	4.27	0.369	72
609	4.17	0.3345	66.9
610	4.055	0.3	61.35
611	3.94	0.264	55.5
612	3.805	0.2235	48.9
613	3.69	0.192	44.25
614	3.605	0.159	39.6
615	3.49	0.117	33.15
616	3.33	0.0645	25.05
617	3.19	0.042	21.45
618	3.135	0.018	17.85
619	3.04	0	14.85
620	3.025	0	14.85
621	3.025	0	14.85
622	3.025	0	14.85
623	3.025	0	14.85
624	3.03	0	14.85
625	3.03	0	14.85
626	3.035	0	14.85
627	3.03	0	14.85
628	3.035	0	14.7
629	3.035	0	14.7
630	3.025	-0.0045	13.95
631	2.995	-0.0165	12.15
632	2.95	-0.0345	9.3
633	2.88	-0.057	5.85
634	2.825	-0.0675	4.35
635	2.8	-0.078	2.55
636	2.755	-0.1005	-0.45
637	2.67	-0.1155	-3.15
638	2.635	-0.1215	-3.9
639	2.64	-0.0975	-0.75
640	2.725	-0.0795	1.35
641	2.74	-0.075	1.95
642	2.765	-0.063	3.6
643	2.81	-0.048	5.7
644	2.845	-0.042	6.45
645	2.835	-0.057	4.65
646	2.815	-0.057	4.65
647	2.815	-0.057	4.65
648	2.815	-0.0585	4.65
649	2.815	-0.0585	4.65
650	2.82	-0.0585	4.65
651	2.82	-0.0585	4.65
652	2.815	-0.0585	4.5
653	2.805	-0.0765	1.95
654	2.745	-0.0915	0.3
655	2.715	-0.0945	0
656	2.71	-0.0945	0
657	2.705	-0.093	0
658	2.705	-0.096	0
659	2.7	-0.0945	0
660	2.7	-0.0945	0
661	2.7	-0.0945	0
662	2.7	-0.093	0
663	2.705	-0.0945	0
664	2.7	-0.0945	0
665	2.705	-0.0945	0
666	2.705	-0.0945	0
667	2.705	-0.0945	0
668	2.705	-0.0945	0
669	2.705	-0.0945	0
670	2.705	-0.0945	0
671	2.71	-0.0945	0
672	2.705	-0.0945	0
673	2.71	-0.0945	0
674	2.71	-0.0945	0
675	2.705	-0.0945	0
676	2.7	-0.0945	0
677	2.695	-0.0945	0
678	2.69	-0.093	0
679	2.69	-0.0945	0
680	2.685	-0.0945	0
681	2.68	-0.0945	0
682	2.68	-0.0945	0
683	2.675	-0.0945	0
684	2.68	-0.0945	0
685	2.675	-0.0945	0
686	2.675	-0.096	0
687	2.67	-0.093	0
688	2.675	-0.0945	0
689	2.67	-0.0945	0
690	2.665	-0.0945	0
691	2.66	-0.0945	0
692	2.65	-0.0945	0
693	2.65	-0.0945	0
694	2.645	-0.0945	0
695	2.645	-0.0945	0
696	2.64	-0.0945	0
697	2.64	-0.0945	0
698	2.64	-0.0945	0
699	2.64	-0.0945	0
700	2.635	-0.0945	0
701	2.635	-0.0945	0
702	2.63	-0.0945	0
703	2.625	-0.0945	0
704	2.625	-0.0945	0
705	2.625	-0.0945	0
706	2.62	-0.0945	0
707	2.62	-0.0945	0
708	2.615	-0.0945	0
709	2.605	-0.093	0
710	2.6	-0.0945	0
711	2.595	-0.0945	0
712	2.59	-0.0945	0
713	2.585	-0.0945	0
714	2.585	-0.0945	0
715	2.59	-0.0945	0
716	2.59	-0.0945	0
717	2.59	-0.0945	0
718	2.59	-0.0945	0
719	2.59	-0.0945	0
720	2.595	-0.0945	0
721	2.59	-0.093	0
722	2.59	-0.093	0
723	2.59	-0.0945	0
724	2.585	-0.0945	0
725	2.585	-0.093	0
726	2.585	-0.0945	0
727	2.58	-0.0945	0
728	2.58	-0.0945	0
729	2.58	-0.0945	0
730	2.575	-0.0945	0
731	2.575	-0.0945	0
732	2.575	-0.0945	0
733	2.58	-0.0945	0
734	2.58	-0.096	0
735	2.58	-0.0945	0
736	2.575	-0.0945	0
737	2.58	-0.0945	0
738	2.58	-0.0945	0
739	2.58	-0.0945	0
740	2.585	-0.0945	0
741	2.59	-0.0945	0
742	2.59	-0.0945	0
743	2.59	-0.096	0
744	2.59	-0.0945	0
745	2.59	-0.0945	0
746	2.59	-0.0945	0
747	2.59	-0.0945	0
748	2.59	-0.0945	0
749	2.595	-0.0945	0
750	2.595	-0.0945	0
751	2.59	-0.0945	0
752	2.595	-0.0945	0
753	2.595	-0.0945	0
754	2.595	-0.0945	0
755	2.595	-0.0945	0
756	2.595	-0.0945	0
757	2.6	-0.096	0
758	2.6	-0.0945	0
759	2.605	-0.0945	0
760	2.605	-0.0945	0
761	2.605	-0.0945	0
762	2.605	-0.0945	0
763	2.605	-0.0945	0
764	2.605	-0.0945	0
765	2.605	-0.0945	0
766	2.605	-0.0945	0
767	2.61	-0.0945	0
768	2.615	-0.0945	0
769	2.62	-0.0945	0
770	2.62	-0.0945	0
771	2.625	-0.0945	0
772	2.625	-0.0945	0
773	2.625	-0.096	0
774	2.63	-0.0945	0
775	2.63	-0.0945	0
776	2.63	-0.0945	0
777	2.63	-0.0945	0
778	2.63	-0.0945	0
779	2.63	-0.0945	0
780	2.63	-0.0945	0
781	2.635	-0.0945	0
782	2.64	-0.0945	0
783	2.64	-0.0945	0
784	2.645	-0.0945	0
785	2.645	-0.0945	0
786	2.645	-0.0945	0
787	2.64	-0.0945	0
788	2.635	-0.0945	0
789	2.63	-0.093	0
790	2.63	-0.0945	0
791	2.625	-0.0945	0
792	2.62	-0.0945	0
793	2.62	-0.093	0
794	2.615	-0.093	0
795	2.61	-0.0945	0
796	2.61	-0.0945	0
797	2.61	-0.0945	0
798	2.605	-0.0945	0
799	2.6	-0.0945	0
800	2.6	-0.0945	0
801	2.595	-0.0945	0
802	2.595	-0.0945	0
803	2.595	-0.0945	0
804	2.59	-0.0945	0
805	2.585	-0.0945	0
806	2.585	-0.096	0
807	2.585	-0.0945	0
808	2.585	-0.0945	0
809	2.585	-0.0945	0
810	2.58	-0.0945	0
811	2.58	-0.0945	0
812	2.575	-0.0945	0
813	2.575	-0.0945	0
814	2.57	-0.0945	0
815	2.565	-0.0945	0
816	2.565	-0.0945	0
817	2.565	-0.0945	0
818	2.565	-0.0945	0
819	2.57	-0.0945	0
820	2.57	-0.0945	0
821	2.57	-0.0945	0
822	2.57	-0.0945	0
823	2.575	-0.0945	0
824	2.575	-0.0945	0
825	2.575	-0.0945	0
826	2.58	-0.0945	0
827	2.575	-0.0945	0
828	2.575	-0.0945	0
829	2.58	-0.0945	0
830	2.58	-0.0945	0
831	2.585	-0.0945	0
832	2.585	-0.0945	0
833	2.585	-0.0945	0
