#INFO
#COMMENT: 

#DATA:
-0.50415912	0.000127288	
-0.50416228	0.000127805	
-0.50415912	0.00012925	
-0.50416439	0.000129972	
-0.50415912	0.000122849	
-0.50415278	0.000104577	
-0.50414539	8.9298e-005	
-0.50397544	8.0833e-005	
-0.50200675	6.8961e-005	
-0.49967491	4.2842e-005	
-0.49677937	5.0585e-005	
-0.49431346	6.6793e-005	
-0.49219063	5.5334e-005	
-0.48998655	5.905e-005	
-0.4881614	6.8135e-005	
-0.48670465	6.287e-005	
-0.48524263	6.989e-005	
-0.48384395	7.0303e-005	
-0.48238615	7.0406e-005	
-0.48064759	7.0406e-005	
-0.47937769	7.5258e-005	
-0.47826508	8.5478e-005	
-0.47729709	8.4652e-005	
-0.47629953	8.331e-005	
-0.4750138	8.1452e-005	
-0.47417565	7.7013e-005	
-0.47348633	7.6703e-005	
-0.47244445	8.3517e-005	
-0.47154929	7.5671e-005	
-0.47032164	8.011e-005	
-0.46934204	7.2058e-005	
-0.46844371	7.309e-005	
-0.46736488	7.5671e-005	
-0.46658479	7.5981e-005	
-0.46595353	7.0922e-005	
-0.465317	7.722e-005	
-0.46460974	7.278e-005	
-0.46362169	7.2471e-005	
-0.46279303	6.8651e-005	
-0.46196755	7.5052e-005	
-0.4614028	7.9491e-005	
-0.46075993	7.4123e-005	
-0.45982044	7.5774e-005	
-0.45885139	8.2588e-005	
-0.45798473	8.4446e-005	
-0.45735136	7.7323e-005	
-0.45680984	7.8871e-005	
-0.45631581	8.1762e-005	
-0.455598	8.1039e-005	
-0.45504274	7.7736e-005	
-0.45461733	8.5272e-005	
-0.45423098	9.7144e-005	
-0.45384885	0.000110668	
-0.45340127	0.000123985	
-0.4530582	0.000129663	
-0.45269929	0.000137818	
-0.45216726	0.000137302	
-0.45176824	0.000128114	
-0.45135233	0.000134205	
-0.45065141	0.000133792	
-0.45000012	0.000149277	
-0.4493847	0.000147109	
-0.44895824	0.000140399	
-0.44842621	0.000127598	
-0.44803775	0.000123778	
-0.44775273	0.000122953	
-0.44748988	0.000116862	
-0.44714998	0.000117584	
-0.44699375	0.000120578	
-0.44685863	0.000112113	
-0.44673196	0.000122436	
-0.44656517	0.000124604	
-0.4464195	0.00012925	
-0.44622632	0.000123882	
-0.44582308	0.000120372	
-0.44561195	0.000127805	
-0.44539872	0.000138231	
-0.44521293	0.000144116	
-0.44498703	0.000137818	
-0.44468302	0.000151136	
-0.44447823	0.000159394	
-0.44428294	0.000164969	
-0.44417738	0.000179938	
-0.44407182	0.000205334	
-0.44390925	0.000299071	
-0.44371291	0.000415107	
-0.44359679	0.000573675	
-0.44343951	0.00087574	
-0.44334134	0.001141879	
-0.44328011	0.001267206	
-0.44323578	0.001362388	
-0.44312177	0.001853682	
-0.44294443	0.002929183	
-0.44264886	0.006454652	
-0.44233006	0.010868355	
-0.442158	0.014528753	
-0.4420841	0.017253019	
-0.44201866	0.018477592	
-0.44198277	0.019870641	
-0.44193843	0.022094531	
-0.44186032	0.025217696	
-0.44183709	0.025838033	
-0.44174631	0.029494513	
-0.44166608	0.030756869	
-0.44166608	0.030619567	
-0.44165975	0.031818432	
-0.44159219	0.034709528	
-0.44158163	0.035408427	
-0.44154785	0.037318274	
-0.44152885	0.038387064	
-0.44145918	0.041262986	
-0.44141168	0.042615158	
-0.44136629	0.044689663	
-0.44127973	0.04792288	
-0.44125228	0.049572679	
-0.44125439	0.049776774	
-0.44124806	0.049742707	
-0.44117945	0.053414154	
-0.44109922	0.057193692	
-0.44108761	0.057156321	
-0.4410855	0.057803296	
-0.44098838	0.063184212	
-0.44088071	0.066401635	
-0.44087121	0.066943617	
-0.44084587	0.067653566	
-0.44081526	0.070072876	
-0.4407572	0.071006844	
-0.44073609	0.071255846	
-0.44070653	0.072523264	
-0.44066642	0.07335038	
-0.44063897	0.073563151	
-0.44058303	0.074810024	
-0.4405693	0.074696878	
-0.44056086	0.075242061	
-0.44046585	0.076158787	
-0.44036029	0.077401117	
-0.44028007	0.078303392	
-0.44024418	0.078248472	
-0.44021251	0.078919912	
-0.44017556	0.07966155	
-0.44016395	0.079500814	
-0.4401555	0.079540662	
-0.44014706	0.079868231	
-0.44010272	0.080373771	
-0.44010695	0.080975838	
-0.44009428	0.08194408	
-0.44004361	0.082427425	
-0.44002461	0.082557811	
-0.43999716	0.082804129	
-0.4399845	0.082951756	
-0.43995494	0.083157606	
-0.43994016	0.083318859	
-0.43992749	0.083231006	
-0.43991483	0.083173608	
-0.43989371	0.083344461	
-0.43988527	0.083596457	
-0.43985149	0.083361495	
-0.43981771	0.082746524	
-0.43979449	0.082540467	
-0.43976282	0.08206631	
-0.43969739	0.08068265	
-0.43962561	0.078642106	
-0.43957494	0.077728788	
-0.4395306	0.076011368	
-0.43948838	0.074678606	
-0.43944932	0.074259779	
-0.43942082	0.072896457	
-0.4393786	0.071289501	
-0.43926881	0.069043419	
-0.43919386	0.068615511	
-0.43913475	0.068565958	
-0.43902497	0.071143527	
-0.43889196	0.075610301	
-0.43885396	0.077306761	
-0.43882651	0.078164129	
-0.43879273	0.079904879	
-0.43878218	0.079892078	
-0.43875051	0.08254057	
-0.43862806	0.089377	
-0.43847816	0.098966086	
-0.43844227	0.099274344	
-0.43843277	0.099436629	
-0.43837682	0.10239276	
-0.43833671	0.10479989	
-0.43832404	0.10465732	
-0.43832404	0.10507553	
-0.43827548	0.10804292	
-0.43822693	0.11096952	
-0.43813192	0.11513639	
-0.43804325	0.1171855	
-0.43803692	0.1175554	
-0.43801791	0.11762312	
-0.43801369	0.11793262	
-0.43797147	0.11837942	
-0.43798836	0.11829889	
-0.43798413	0.11848533	
-0.4379208	0.11921129	
-0.43783635	0.11935932	
-0.43779624	0.11976308	
-0.43758089	0.11967264	
-0.43752917	0.11908018	
-0.43741727	0.1182865	
-0.43734338	0.1168821	
-0.43730327	0.11545942	
-0.43728638	0.11485931	
-0.43723993	0.11329499	
-0.43718715	0.11037427	
-0.43717554	0.10930568	
-0.43716815	0.10921349	
-0.43714809	0.1075541	
-0.43709742	0.10304727	
-0.43706048	0.09901791	
-0.43705625	0.098748467	
-0.43703514	0.095876262	
-0.43695703	0.087646675	
-0.43692958	0.086528436	
-0.43692747	0.086607204	
-0.43691691	0.0858827	
-0.4368768	0.081636127	
-0.43686413	0.077245955	
-0.4368008	0.068970638	
-0.43671424	0.061477532	
-0.43658756	0.051029426	
-0.436501	0.044858348	
-0.43648728	0.043943997	
-0.43647356	0.042583155	
-0.43638277	0.038183795	
-0.43632999	0.034138431	
-0.4362181	0.030516435	
-0.43608931	0.025325783	
-0.4359732	0.020541464	
-0.43592042	0.019380585	
-0.43593731	0.019714137	
-0.43588875	0.018087571	
-0.43580641	0.015443723	
-0.43574096	0.013710825	
-0.43565335	0.012055245	
-0.43557207	0.011214294	
-0.43548973	0.010414739	
-0.43541478	0.009854278	
-0.43537889	0.009605689	
-0.43536833	0.009609509	
-0.435362	0.009574615	
-0.435362	0.009431737	
-0.43527333	0.008829776	
-0.43515721	0.008038067	
-0.43504109	0.007528604	
-0.43497987	0.007351556	
-0.43494187	0.007100179	
-0.43490914	0.006949043	
-0.43486586	0.006686621	
-0.43479408	0.006132455	
-0.43474975	0.005713219	
-0.43469274	0.005360569	
-0.4346463	0.00507688	
-0.43454496	0.004475435	
-0.43449007	0.004058364	
-0.4344584	0.003880698	
-0.43444151	0.003939954	
-0.4344394	0.003894015	
-0.43440773	0.003572852	
-0.43435072	0.003172095	
-0.43429372	0.002808399	
-0.4341776	0.00224164	
-0.43401715	0.001272368	
-0.43374269	0.00082309	
-0.43350518	0.00050905	
-0.43335106	0.000358328	
-0.43320117	0.000270372	
-0.43310405	0.000227839	
-0.43303438	0.000198727	
-0.43293937	0.000180041	
-0.43279792	0.000166518	
-0.43278314	0.000165382	
-0.43269447	0.000154129	
-0.43258469	0.000147006	
-0.43248441	0.000141432	
-0.43235457	0.000141535	
-0.43210966	0.000131005	
-0.43180459	0.000109222	
-0.43139924	0.000105299	
-0.43102555	9.8073e-005	
-0.43067087	8.3827e-005	
-0.43039219	8.393e-005	
-0.42996255	7.5981e-005	
-0.42943264	7.2471e-005	
-0.42875708	6.7309e-005	
-0.42785347	7.0922e-005	
-0.42699315	6.3076e-005	
-0.42603994	6.8445e-005	
-0.4252799	6.927e-005	
-0.42434779	6.4418e-005	
-0.42365426	5.8431e-005	
-0.42279077	5.8741e-005	
-0.42204551	5.8121e-005	
-0.42140686	5.2546e-005	
-0.42040615	5.1411e-005	
-0.41953104	3.4997e-005	
-0.41844165	3.7061e-005	
-0.41668829	3.1074e-005	
-0.41509115	3.541e-005	
-0.4129472	6.2767e-005	
-0.41023851	3.9126e-005	
-0.40738205	4.0158e-005	
-0.40529088	5.4405e-005	
-0.40317016	7.2677e-005	
-0.40143157	5.6986e-005	
-0.39960431	6.6277e-005	
-0.39770319	7.4639e-005	
-0.39429146	9.6215e-005	
-0.39098845	4.3565e-005	
-0.38795991	3.1796e-005	
-0.38524593	3.1383e-005	
-0.38163997	8.259e-006	
-0.37858715	4.2223e-005	
-0.37454629	3.0764e-005	
-0.37240762	3.4893e-005	
-0.3706152	2.3641e-005	
-0.36860743	3.1693e-005	
-0.36638748	1.9924e-005	
-0.3641211	2.9422e-005	
-0.36140185	2.5086e-005	
-0.3585971	2.5396e-005	
-0.35587785	1.8376e-005	
-0.3527828	3.6235e-005	
-0.34989148	2.8596e-005	
-0.34724612	2.0131e-005	
-0.34379219	1.9098e-005	
-0.34119011	1.724e-005	
-0.33896171	2.2195e-005	
-0.3367576	2.5189e-005	
-0.33363196	2.4776e-005	
-0.33033212	2.0234e-005	
-0.32686127	2.1473e-005	
-0.3243257	1.4866e-005	
-0.32141116	1.9615e-005	
-0.31877847	2.3538e-005	
-0.31667253	2.4673e-005	
-0.31354371	1.8789e-005	
-0.31064078	9.4253e-005	
-0.30824771	8.672e-006	
-0.3049711	7.433e-006	
-0.30269944	1.3111e-005	
-0.30125748	1.404e-005	
-0.29985035	2.4673e-005	
-0.29789009	2.1266e-005	
-0.29513389	1.3111e-005	
-0.29249064	1.2904e-005	
-0.29023902	2.0853e-005	
-0.28916758	1.8376e-005	
-0.28884667	1.6518e-005	
-0.28810775	2.4467e-005	
-0.28657606	2.5086e-005	
-0.2838093	8.052e-006	
-0.28142258	1.6621e-005	
-0.28032474	1.8995e-005	
-0.27975894	1.6105e-005	
-0.27866216	1.9821e-005	
-0.27693623	1.786e-005	
-0.27576979	1.2904e-005	
-0.27433416	2.8493e-005	
-0.27206776	1.9408e-005	
-0.27003466	1.8995e-005	
-0.26828762	2.137e-005	
-0.26637274	2.3434e-005	
-0.26327453	2.0957e-005	
-0.2611876	2.6222e-005	
-0.25978469	1.8789e-005	
-0.25806933	2.746e-005	
-0.25647747	1.7963e-005	
-0.25464809	2.0131e-005	
-0.25362943	1.6621e-005	
-0.25281344	2.3641e-005	
-0.25155727	2.3434e-005	
-0.25025781	1.7963e-005	
-0.24915575	2.5293e-005	
-0.24805686	2.2299e-005	
-0.24714376	2.426e-005	
-0.24586753	2.1473e-005	
-0.24437912	1.8892e-005	
-0.24280943	2.2092e-005	
-0.24102017	1.6001e-005	
-0.23923092	3.2209e-005	
-0.23665312	1.6001e-005	
-0.23503276	2.0028e-005	
-0.23392437	3.0041e-005	
-0.23296904	1.5382e-005	
-0.23209077	2.2505e-005	
-0.23131806	3.7164e-005	
-0.23051897	4.8004e-005	
-0.22968188	6.8961e-005	
-0.22901051	3.3551e-005	
-0.22859671	2.5499e-005	
-0.22837081	4.2946e-005	
-0.22804252	5.9257e-005	
-0.22785462	4.5114e-005	
-0.22741232	4.8107e-005	
-0.22721492	4.8107e-005	
-0.22711358	4.3255e-005	
-0.22703124	3.8816e-005	
-0.22700696	4.7281e-005	
-0.22698057	4.8314e-005	
-0.22670189	4.6869e-005	
-0.22597352	5.5953e-005	
-0.2252462	7.2574e-005	
-0.22513642	7.0406e-005	
-0.22486618	7.4535e-005	
-0.22427188	8.7337e-005	
-0.22311915	0.000147935	
-0.2221691	0.000245079	
-0.22139534	0.000338816	
-0.2207757	0.000447109	
-0.22043579	0.000510805	
-0.22027745	0.00054735	
-0.21981087	0.00072254	
-0.21939179	0.000817722	
-0.21925878	0.000847247	
-0.21920811	0.000841672	
-0.21918278	0.000886373	
-0.21897377	0.000985065	
-0.21868242	0.001072918	
-0.21816306	0.001276084	
-0.2175772	0.001595905	
-0.21720351	0.001829835	
-0.21685516	0.002084412	
-0.21655537	0.002313905	
-0.21634002	0.002543705	
-0.21605078	0.002894496	
-0.21577844	0.003261909	
-0.21540686	0.00373844	
-0.21518835	0.003965556	
-0.21511024	0.004119273	
-0.21486533	0.004631938	
-0.21450009	0.005392675	
-0.21421719	0.006066281	
-0.21369255	0.007166559	
-0.2133347	0.007891371	
-0.21325342	0.00802475	
-0.21296629	0.008892646	
-0.21259683	0.009651628	
-0.21249971	0.009831463	
-0.21244904	0.009873376	
-0.21238465	0.010122998	
-0.21230337	0.01070927	
-0.21200463	0.01219265	
-0.21157605	0.013723729	
-0.21136704	0.014536289	
-0.21116859	0.015491727	
-0.21096591	0.016287773	
-0.21076535	0.017322805	
-0.21063973	0.018050303	
-0.21055317	0.018699443	
-0.21040749	0.019905637	
-0.21021326	0.020896075	
-0.20991558	0.022118585	
-0.20960523	0.023707884	
-0.20930121	0.025605445	
-0.20896871	0.027272587	
-0.20862247	0.028553732	
-0.20843246	0.029366605	
-0.20818333	0.030797646	
-0.20773364	0.032479444	
-0.20750141	0.033264754	
-0.20736946	0.033946312	
-0.20727973	0.034592664	
-0.2071615	0.03552405	
-0.20695144	0.036537405	
-0.20669176	0.038014077	
-0.20623784	0.039682148	
-0.2059106	0.04092324	
-0.20578393	0.041417012	
-0.20567204	0.041957656	
-0.20551369	0.042569218	
-0.20527618	0.043602703	
-0.20504184	0.044580957	
-0.20478638	0.04535522	
-0.20453303	0.045935915	
-0.20423957	0.046627282	
-0.203868	0.047304298	
-0.20339614	0.04781562	
-0.20296334	0.048032929	
-0.20273744	0.048056569	
-0.20262977	0.04805946	
-0.20257277	0.048055124	
-0.20232364	0.047867753	
-0.20196684	0.047597381	
-0.20182856	0.047415895	
-0.20165544	0.047209838	
-0.20150554	0.046889188	
-0.20137465	0.046513104	
-0.20127542	0.046304054	
-0.20111075	0.045713754	
-0.20082151	0.044804976	
-0.20050377	0.04378677	
-0.20028526	0.043095924	
-0.2001987	0.042837009	
-0.20017336	0.042443065	
-0.20005197	0.042184876	
-0.19970362	0.040505241	
-0.19916314	0.038006232	
-0.1988908	0.036611115	
-0.1987789	0.036278596	
-0.19872823	0.036174845	
-0.19869973	0.035962698	
-0.19849598	0.034521432	
-0.19807479	0.032421323	
-0.19769688	0.031096408	
-0.19752165	0.030640523	
-0.19743087	0.030207865	
-0.19717752	0.028979162	
-0.19674261	0.027236246	
-0.19648399	0.026007028	
-0.19630137	0.025632596	
-0.19622958	0.025371103	
-0.19615252	0.025099799	
-0.19606808	0.024958987	
-0.19592451	0.024103583	
-0.1953946	0.021730522	
-0.19512858	0.020806983	
-0.1950188	0.02075454	
-0.19499769	0.020356467	
-0.19482351	0.019813862	
-0.19475384	0.019815823	
-0.19472956	0.019684508	
-0.19465672	0.019265995	
-0.19450261	0.018480689	
-0.19411625	0.017105806	
-0.19378901	0.016134986	
-0.19349555	0.015306937	
-0.19326965	0.014583055	
-0.19305536	0.013652497	
-0.19269435	0.01274599	
-0.19237344	0.01194179	
-0.19211587	0.011333943	
-0.19195964	0.010952904	
-0.19170418	0.010352902	
-0.19126188	0.009201731	
-0.19059685	0.008084626	
-0.190277	0.007506821	
-0.19017249	0.007349492	
-0.19008382	0.007249766	
-0.18995715	0.006916318	
-0.18954968	0.006104065	
-0.18891209	0.005689475	
-0.18874425	0.005571787	
-0.18869358	0.005573129	
-0.18865558	0.0054988	
-0.18856691	0.005377086	
-0.18829667	0.004992847	
-0.18762848	0.004312633	
-0.18625408	0.003356885	
-0.1854212	0.002998144	
-0.18515941	0.002914937	
-0.18512669	0.002919789	
-0.18510452	0.002897697	
-0.1849029	0.002718172	
-0.18434342	0.002424675	
-0.18393701	0.002280663	
-0.1838494	0.002281076	
-0.18383251	0.002278908	
-0.18381773	0.002274056	
-0.18373117	0.002201998	
-0.18358761	0.002140057	
-0.18341132	0.002090709	
-0.18326037	0.002061907	
-0.18303025	0.002011528	
-0.18291624	0.001981796	
-0.18262489	0.001928218	
-0.1823916	0.001874742	
-0.18212559	0.001834171	
-0.18186591	0.001783999	
-0.18157245	0.001739918	
-0.18125365	0.001684377	
-0.1809528	0.001635031	
-0.18049361	0.001579697	
-0.18015054	0.001551927	
-0.17988242	0.001507227	
-0.1794475	0.001470682	
-0.17905482	0.001441363	
-0.1787033	0.001415451	
-0.17853229	0.001394907	
-0.17815649	0.001361046	
-0.17756956	0.001311907	
-0.17714204	0.00128424	
-0.17701959	0.001277426	
-0.1769552	0.001269374	
-0.1769077	0.00126958	
-0.17676624	0.001255747	
-0.17646012	0.001237165	
-0.17637567	0.001232106	
-0.17632394	0.001223021	
-0.17622155	0.001212285	
-0.17595659	0.00120062	
-0.1756473	0.001171507	
-0.1753739	0.001154474	
-0.175205	0.001155196	
-0.17511844	0.001145595	
-0.17477431	0.001133001	
-0.17442596	0.001113902	
-0.17414516	0.001092326	
-0.17382426	0.001062388	
-0.17355719	0.001044012	
-0.17340729	0.001029766	
-0.17324051	0.001025224	
-0.17290271	0.000992911	
-0.17234535	0.000936029	
-0.17190516	0.0009032	
-0.17180277	0.000895871	
-0.17171515	0.000897213	
-0.17165181	0.000870165	
-0.17148186	0.000864591	
-0.17139847	0.000864797	
-0.17133513	0.000855816	
-0.17103956	0.000807502	
-0.17057509	0.000770647	
-0.1702563	0.000756401	
-0.17011062	0.000739367	
-0.16995545	0.000715313	
-0.16959654	0.00068713	
-0.16929675	0.000662251	
-0.16888717	0.000629835	
-0.16853143	0.000609291	
-0.16820841	0.000595561	
-0.16795718	0.000560461	
-0.16760249	0.000534136	
-0.16708525	0.000503166	
-0.16675907	0.000475189	
-0.16649939	0.000467034	
-0.16631149	0.000454749	
-0.16623971	0.000441432	
-0.16598636	0.000416655	
-0.1656359	0.000399312	
-0.16540578	0.000388162	
-0.16518199	0.000367103	
-0.16490648	0.000341191	
-0.16456446	0.000328183	
-0.16436811	0.000321473	
-0.16424566	0.000305162	
-0.16410632	0.000289677	
-0.16386142	0.000281005	
-0.16376008	0.000274914	
-0.16369886	0.000270372	
-0.16343495	0.000246524	
-0.16291243	0.000228045	
-0.16235295	0.000200791	
-0.16197082	0.000186648	
-0.16182726	0.000179628	
-0.16156547	0.000165279	
-0.16121817	0.000141948	
-0.16074526	0.000129456	
-0.16024068	0.000118307	
-0.15993033	0.000107364	
-0.15970971	9.9518e-005	
-0.15950175	0.000101067	
-0.15924102	0.000102512	
-0.15877866	9.0124e-005	
-0.15841553	8.3723e-005	
-0.15814951	7.8665e-005	
-0.15792361	7.5465e-005	
-0.15762699	6.4522e-005	
-0.15738209	6.3283e-005	
-0.15723219	6.0289e-005	
-0.1570464	5.4508e-005	
-0.15688384	5.8431e-005	
-0.15666427	4.9449e-005	
-0.1563898	5.5437e-005	
-0.15612168	4.4494e-005	
-0.15576171	5.1308e-005	
-0.15522124	3.7164e-005	
-0.15470822	3.0764e-005	
-0.15427647	2.7254e-005	
-0.15379934	3.6442e-005	
-0.15334542	3.0661e-005	
-0.15296751	2.8906e-005	
-0.15261811	3.2416e-005	
-0.15236054	3.0661e-005	
-0.15210297	2.6325e-005	
-0.1517314	1.8685e-005	
-0.15126693	2.5705e-005	
-0.1506494	3.0248e-005	
-0.15015748	2.2092e-005	
-0.14937211	2.8286e-005	
-0.14879047	2.2299e-005	
-0.14843261	2.9112e-005	
-0.14821516	2.3847e-005	
-0.14792909	1.8273e-005	
-0.14763563	2.7667e-005	
-0.14746462	2.5396e-005	
-0.147301	1.724e-005	
-0.14689987	2.1679e-005	
-0.1465663	2.106e-005	
-0.14627495	2.3434e-005	
-0.14592871	3.3035e-005	
-0.14543257	1.9924e-005	
-0.14473481	1.1769e-005	
-0.1442809	2.2712e-005	
-0.14391355	1.8066e-005	
-0.14343747	1.7756e-005	
-0.143049	1.5485e-005	
-0.14278299	1.9511e-005	
-0.14268587	2.5086e-005	
-0.14246842	1.404e-005	
-0.14204089	1.2595e-005	
-0.14159754	1.9098e-005	
-0.14112463	1.5382e-005	
-0.14069182	1.5795e-005	
-0.1404807	2.0544e-005	
-0.14028436	2.3744e-005	
-0.13985473	2.2299e-005	
-0.13931003	2.106e-005	
-0.13863866	1.5176e-005	
-0.13811614	2.3847e-005	
-0.137601	2.457e-005	
-0.13662667	1.7653e-005	
-0.13611153	1.9305e-005	
-0.13594686	2.6738e-005	
-0.13549294	1.7653e-005	
-0.13482896	1.6208e-005	
-0.13464106	1.7756e-005	
-0.13457983	1.7756e-005	
-0.13432437	1.786e-005	
-0.133596	1.9305e-005	
-0.13253089	1.5795e-005	
-0.13209598	2.1989e-005	
-0.13189964	1.5485e-005	
-0.13170435	1.7963e-005	
-0.13156395	2.3434e-005	
-0.13112588	1.5279e-005	
-0.13055585	2.075e-005	
-0.12993093	1.6724e-005	
-0.12948229	2.1266e-005	
-0.12920994	2.5705e-005	
-0.12868425	1.022e-005	
-0.1275748	1.755e-005	
-0.12644952	8.878e-006	
-0.12523452	1.7034e-005	
-0.12415462	2.044e-005	
-0.12327424	1.755e-005	
-0.12275066	1.8892e-005	
-0.12217957	1.9718e-005	
-0.12158632	1.4659e-005	
-0.12043676	2.1266e-005	
-0.11919853	2.2092e-005	
-0.11790118	3.159e-005	
-0.11628188	2.2092e-005	
-0.11489375	1.4246e-005	
-0.11352674	2.6428e-005	
-0.11204678	2.4363e-005	
-0.11069665	2.4157e-005	
-0.10972444	2.3538e-005	
-0.10859493	2.7151e-005	
-0.10648794	2.5189e-005	
-0.10435244	2.2195e-005	
-0.10269616	2.1576e-005	
-0.10138615	2.5809e-005	
-0.09941322	3.159e-005	
-0.09760073	2.6118e-005	
-0.09596348	2.4776e-005	
-0.09423967	2.9215e-005	
-0.09207674	2.3331e-005	
-0.08989901	2.4776e-005	
-0.08674696	2.457e-005	
-0.08411321	2.8493e-005	
-0.08216454	3.0454e-005	
-0.08080913	3.1383e-005	
-0.07967224	3.448e-005	
-0.07803077	2.9319e-005	
-0.07590583	3.2725e-005	
-0.07383789	3.3345e-005	
-0.0709244	3.4274e-005	
-0.06773435	2.9319e-005	
-0.06454113	3.5926e-005	
-0.06190209	3.448e-005	
-0.05989327	5.9153e-005	
-0.05795411	5.3372e-005	
-0.05637175	5.0791e-005	
-0.05434392	6.3283e-005	
-0.05180201	7.9594e-005	
-0.050435	7.5568e-005	
-0.04960635	6.989e-005	
-0.04951029	7.8871e-005	
-0.04949762	7.7736e-005	
-0.04948706	5.5334e-005	
-0.04947862	6.4109e-005	
-0.04949551	6.4625e-005	
-0.04952084	5.8121e-005	
-0.0495314	6.5967e-005	
-0.04953351	6.3593e-005	
-0.04953562	6.7825e-005	
-0.04953984	6.8961e-005	
-0.04954195	8.2485e-005	
-0.04953984	7.0922e-005	
