#INFO
#COMMENT: 

#DATA:
-0.46294715	2.5705e-005	
-0.46294504	2.6635e-005	
-0.46294926	2.4157e-005	
-0.4629461	2.6738e-005	
-0.46294715	1.6621e-005	
-0.46294821	2.5912e-005	
-0.46294926	2.5293e-005	
-0.46294926	2.488e-005	
-0.46295138	1.4143e-005	
-0.46294715	1.2595e-005	
-0.46294926	1.0633e-005	
-0.46294926	-2.8183e-005	
-0.46294926	-6.19e-007	
-0.46294715	1.0323e-005	
-0.46294504	1.6518e-005	
-0.46294715	2.075e-005	
-0.46294082	2.5293e-005	
-0.46294082	3.1796e-005	
-0.46293871	2.1576e-005	
-0.4629366	1.4556e-005	
-0.4629366	2.7357e-005	
-0.46293449	2.5189e-005	
-0.46293449	1.6001e-005	
-0.46292815	1.9511e-005	
-0.46292921	1.8995e-005	
-0.46292604	2.0957e-005	
-0.46292815	2.5086e-005	
-0.46292604	2.9009e-005	
-0.46292815	4.2533e-005	
-0.46292604	3.541e-005	
-0.46292393	2.3228e-005	
-0.46292604	8.568e-006	
-0.46292498	8.878e-006	
-0.46292393	1.5176e-005	
-0.46292604	3.4687e-005	
-0.46292393	3.7784e-005	
-0.46292393	2.8286e-005	
-0.46292182	1.3214e-005	
-0.46292393	5.265e-006	
-0.46292393	8.878e-006	
-0.46292393	1.4453e-005	
-0.46292393	3.2312e-005	
-0.46292182	1.3627e-005	
-0.46292182	5.059e-006	
-0.46292393	6.091e-006	
-0.46291971	-2.395e-005	
-0.46292393	2.9628e-005	
-0.46292393	2.3228e-005	
-0.46291971	1.6001e-005	
-0.46291971	1.1046e-005	
-0.46292182	9.188e-006	
-0.46292182	1.4143e-005	
-0.4629176	1.1149e-005	
-0.46291971	2.0028e-005	
-0.46291971	2.0337e-005	
-0.46292182	1.6208e-005	
-0.46291971	1.0427e-005	
-0.46291865	1.022e-005	
-0.4629176	1.6001e-005	
-0.46291337	1.4453e-005	
-0.46290493	1.8479e-005	
-0.46288804	1.2182e-005	
-0.4628627	1.8169e-005	
-0.46284581	1.0014e-005	
-0.46280781	1.6311e-005	
-0.46271281	1.3317e-005	
-0.46253758	1.6724e-005	
-0.46239824	2.3641e-005	
-0.46181026	1.1459e-005	
-0.461084	1.4246e-005	
-0.46052664	1.8273e-005	
-0.45985844	2.0028e-005	
-0.45890628	1.3524e-005	
-0.45809451	1.8582e-005	
-0.45750337	1.4246e-005	
-0.45710435	2.0647e-005	
-0.45668316	1.373e-005	
-0.45585768	1.4866e-005	
-0.45543332	1.755e-005	
-0.45505541	2.3021e-005	
-0.45470812	2.2402e-005	
-0.45450966	1.9098e-005	
-0.45421831	2.6325e-005	
-0.45365884	3.3138e-005	
-0.4529653	3.5822e-005	
-0.45242272	3.5513e-005	
-0.45210604	3.3758e-005	
-0.4519118	4.0262e-005	
-0.4517049	3.5306e-005	
-0.45152756	4.0571e-005	
-0.45143784	3.6958e-005	
-0.45111271	3.4274e-005	
-0.45051101	3.7577e-005	
-0.44974678	3.8094e-005	
-0.44917569	3.6958e-005	
-0.44874712	3.4171e-005	
-0.44851805	3.4377e-005	
-0.44808841	3.1693e-005	
-0.44786885	3.2519e-005	
-0.447682	2.8802e-005	
-0.44708875	3.7061e-005	
-0.4461577	3.9745e-005	
-0.44572385	3.0557e-005	
-0.44558873	3.5306e-005	
-0.44551273	4.1604e-005	
-0.44545783	3.6029e-005	
-0.44544517	3.3138e-005	
-0.44531216	3.6855e-005	
-0.44518126	4.3565e-005	
-0.44515276	3.9745e-005	
-0.44515171	3.4584e-005	
-0.44507359	3.7577e-005	
-0.44493425	4.4391e-005	
-0.44480758	3.7164e-005	
-0.44467035	3.7164e-005	
-0.44411615	9.1053e-005	
-0.44363902	0.000268617	
-0.44338567	0.000360289	
-0.44333289	0.000364728	
-0.44332128	0.000364625	
-0.44330545	0.000375258	
-0.44328856	0.000380833	
-0.44328011	0.00038424	
-0.44320411	0.00048541	
-0.44303732	0.000769098	
-0.44291698	0.001039264	
-0.44277131	0.001451377	
-0.44261613	0.001942567	
-0.44257074	0.0019883	
-0.4424979	0.002472679	
-0.44235223	0.004119583	
-0.44223611	0.00529966	
-0.44220022	0.005241643	
-0.44219389	0.005333521	
-0.44216222	0.005937754	
-0.44205877	0.007489891	
-0.44200388	0.008470416	
-0.4419511	0.009422653	
-0.44189832	0.009889378	
-0.4418772	0.010108132	
-0.44171886	0.012654731	
-0.44152885	0.015118431	
-0.44148874	0.015357213	
-0.44136629	0.017311037	
-0.44103694	0.021420818	
-0.44073081	0.022603788	
-0.44067275	0.02266449	
-0.4406622	0.02256745	
-0.44064953	0.022585206	
-0.44064636	0.022602962	
-0.44063053	0.022734174	
-0.4405883	0.022761324	
-0.44052497	0.022894084	
-0.44043207	0.023267279	
-0.44018401	0.024147768	
-0.44005206	0.024420721	
-0.44004783	0.024426399	
-0.44003094	0.024482765	
-0.43998872	0.024383143	
-0.43994227	0.024333384	
-0.43991905	0.024324609	
-0.43991483	0.024330081	
-0.43991271	0.024315834	
-0.43991271	0.024295704	
-0.43990005	0.024280838	
-0.43988527	0.024280322	
-0.43986416	0.024180907	
-0.43985993	0.023951105	
-0.43984093	0.023990128	
-0.43984093	0.023986205	
-0.43984093	0.023972165	
-0.43980082	0.02371253	
-0.43974384	0.023533418	
-0.43973117	0.023537237	
-0.43972061	0.02353796	
-0.43966994	0.023625606	
-0.4396235	0.023764973	
-0.43954327	0.023648731	
-0.4394926	0.023351415	
-0.43946938	0.023190678	
-0.43935959	0.022868276	
-0.43928992	0.022933417	
-0.43927092	0.022938785	
-0.43926037	0.022925777	
-0.43925614	0.022925364	
-0.4392097	0.023204202	
-0.43913897	0.023654409	
-0.43903869	0.025041781	
-0.43898169	0.025772686	
-0.43896163	0.026243334	
-0.43894263	0.026584628	
-0.43889513	0.027071277	
-0.43890252	0.027035454	
-0.43889829	0.027194642	
-0.43882968	0.02807885	
-0.4388244	0.028371523	
-0.43874417	0.029828993	
-0.43871673	0.030209413	
-0.43870195	0.030318842	
-0.43867662	0.030969739	
-0.43860061	0.032541802	
-0.43851194	0.033965204	
-0.43848872	0.034117681	
-0.43848238	0.03419583	
-0.43846972	0.034490875	
-0.43836415	0.035171503	
-0.43820581	0.034974325	
-0.43816781	0.034807394	
-0.43810025	0.034676493	
-0.43796936	0.034666995	
-0.43787435	0.034395279	
-0.43780257	0.033940427	
-0.43776457	0.033852575	
-0.4377519	0.03371424	
-0.43769279	0.033189909	
-0.43765267	0.032867404	
-0.43761784	0.032490696	
-0.43757667	0.031660173	
-0.43745844	0.030382434	
-0.43739405	0.029800294	
-0.43739088	0.029704699	
-0.43736238	0.029304558	
-0.43733388	0.028612989	
-0.43728743	0.02775841	
-0.43727899	0.027746951	
-0.43727371	0.027376338	
-0.43720404	0.024922132	
-0.4370267	0.019748307	
-0.43676068	0.013012645	
-0.43660234	0.010279089	
-0.4365844	0.010306343	
-0.43656856	0.009884113	
-0.43650311	0.00861928	
-0.43635955	0.006289165	
-0.43618221	0.004664457	
-0.43608087	0.004125777	
-0.43599537	0.003680938	
-0.43584019	0.003057711	
-0.43571141	0.002732831	
-0.43566496	0.002644875	
-0.43560479	0.002527187	
-0.43541478	0.002237098	
-0.43516988	0.001914591	
-0.43509704	0.001764281	
-0.43492287	0.001496903	
-0.43470541	0.001117929	
-0.43451329	0.000891019	
-0.43442673	0.000764866	
-0.4342135	0.000492842	
-0.43394431	0.000242189	
-0.43368675	0.000140399	
-0.43354529	9.8486e-005	
-0.43338695	7.5568e-005	
-0.43315894	4.6352e-005	
-0.43269447	3.9952e-005	
-0.43236934	3.159e-005	
-0.43225534	2.746e-005	
-0.43207483	2.6944e-005	
-0.4317307	2.1576e-005	
-0.43143513	2.7873e-005	
-0.43131057	2.9215e-005	
-0.43108467	1.4659e-005	
-0.4306392	2.6325e-005	
-0.43018529	2.4776e-005	
-0.42982744	2.1473e-005	
-0.42954875	1.3524e-005	
-0.42919832	1.8066e-005	
-0.42871907	1.8892e-005	
-0.42841189	2.0957e-005	
-0.42801076	1.5176e-005	
-0.42744284	1.5279e-005	
-0.42696887	1.5692e-005	
-0.42632284	1.5898e-005	
-0.42589848	1.3317e-005	
-0.42558919	1.4556e-005	
-0.42483126	5.265e-006	
-0.4238031	1.9821e-005	
-0.42294489	1.8169e-005	
-0.42213418	2.6118e-005	
-0.42125486	1.6621e-005	
-0.42060354	1.2904e-005	
-0.42012324	2.6531e-005	
-0.42009157	2.8596e-005	
-0.42008313	2.7047e-005	
-0.42008313	2.5602e-005	
-0.42007996	0.000126772	
-0.41999129	2.4467e-005	
-0.41998179	2.0647e-005	
-0.41977806	2.3744e-005	
-0.41906658	7.846e-006	
-0.41790013	1.693e-005	
-0.41707253	1.4246e-005	
-0.41646872	1.9202e-005	
-0.41582796	3.1383e-005	
-0.41549017	1.8892e-005	
-0.41482302	1.549e-006	
-0.41385925	1.022e-005	
-0.41309288	6.401e-006	
-0.41178076	1.0633e-005	
-0.41101016	2.8802e-005	
-0.41090143	7.2884e-005	
-0.4106502	7.949e-006	
-0.40953125	-2.684e-006	
-0.40762062	2.684e-006	
-0.40614487	4.026e-006	
-0.40543656	2.787e-006	
-0.40441895	1.5588e-005	
-0.40323878	9.911e-006	
-0.40167225	1.4659e-005	
-0.40032424	1.1046e-005	
-0.39909129	2.271e-006	
-0.3976483	1.3627e-005	
-0.39638262	7.949e-006	
-0.39472215	2.5293e-005	
-0.39355253	1.8479e-005	
-0.39270065	1.9305e-005	
-0.39159965	1.053e-005	
-0.39067283	1.4246e-005	
-0.38981884	1.3214e-005	
-0.38871467	1.1872e-005	
-0.38740466	7.226e-006	
-0.38631949	1.693e-005	
-0.38552673	2.06e-007	
-0.38493347	7.226e-006	
-0.38406048	9.085e-006	
-0.38298165	1.0014e-005	
-0.38175609	1.5692e-005	
-0.38088943	4.439e-006	
-0.37954881	1.6724e-005	
-0.37760754	9.601e-006	
-0.37561034	4.026e-006	
-0.37388759	1.2285e-005	
-0.37215639	1.6827e-005	
-0.36955642	1.5279e-005	
-0.36658171	1.0323e-005	
-0.36342651	8.362e-006	
-0.35920513	1.0323e-005	
-0.35417092	5.575e-006	
-0.35080142	5.368e-006	
-0.34717223	1.755e-005	
-0.34232383	9.291e-006	
-0.33937551	1.5692e-005	
-0.33649159	1.8892e-005	
-0.33329522	4.439e-006	
-0.32934513	9.291e-006	
-0.32635141	1.032e-006	
-0.32361105	3.097e-006	
-0.32006737	5.162e-006	
-0.31739879	4.336e-006	
-0.31444413	4.336e-006	
-0.31137443	1.1459e-005	
-0.30879135	1.4763e-005	
-0.30555379	1.858e-006	
-0.30290107	-1.755e-006	
-0.30109281	3.51e-006	
-0.29923599	8.156e-006	
-0.29718072	1.2491e-005	
-0.29497238	1.8479e-005	
-0.29315145	1.5795e-005	
-0.29140019	7.23e-007	
-0.28947793	-1.858e-006	
-0.28721576	7.949e-006	
-0.28519848	6.71e-006	
-0.2836119	6.607e-006	
-0.28196938	9.911e-006	
-0.28033847	6.917e-006	
-0.27890706	1.1046e-005	
-0.27674939	1.0633e-005	
-0.2752842	2.1886e-005	
-0.27339255	6.401e-006	
-0.27204243	1.549e-006	
-0.27149456	7.02e-006	
-0.27091926	1.3111e-005	
-0.27067119	5.884e-006	
-0.26980664	1.1253e-005	
-0.26842696	2.581e-006	
-0.26725523	-1.858e-006	
-0.26582066	3.82e-006	
-0.26490545	4.646e-006	
-0.26466054	-6.504e-006	
-0.26463204	5.265e-006	
-0.26461515	2.787e-006	
-0.26382239	4.646e-006	
-0.26328508	6.194e-006	
-0.26323969	1.0943e-005	
-0.26295785	5.162e-006	
-0.26275306	1.1872e-005	
-0.26272561	5.265e-006	
-0.26237304	1.3008e-005	
-0.26168478	8.26e-007	
-0.26096592	4.13e-007	
-0.25996098	5.059e-006	
-0.25903943	5.265e-006	
-0.25826672	3.2e-006	
-0.25740007	3.716e-006	
-0.25593171	7.639e-006	
-0.25435463	8.775e-006	
-0.25358298	1.1253e-005	
-0.25208929	5.884e-006	
-0.25094185	5.988e-006	
-0.25013536	5.884e-006	
-0.24967089	9.704e-006	
-0.24932993	5.575e-006	
-0.24897102	8.568e-006	
-0.24852555	4.955e-006	
-0.24838199	7.33e-006	
-0.24836932	2.374e-006	
-0.24790274	2.581e-006	
-0.24684819	4.129e-006	
-0.24640694	6.194e-006	
-0.24635205	3.2e-006	
-0.24633094	4.542e-006	
-0.24633094	7.536e-006	
-0.24633305	1.1459e-005	
-0.24632883	7.743e-006	
-0.24632883	1.373e-005	
-0.24632461	1.445e-006	
-0.24633094	4.026e-006	
-0.2463225	8.362e-006	
-0.24613882	7.123e-006	
-0.24602481	5.471e-006	
-0.24601426	9.911e-006	
-0.24591925	8.052e-006	
-0.24547906	7.639e-006	
-0.24502937	9.291e-006	
-0.24448046	4.852e-006	
-0.24358635	4.852e-006	
-0.24298255	-8.26e-007	
-0.24239563	5.471e-006	
-0.24148675	-3.1e-007	
-0.24053881	3.304e-006	
-0.23969539	6.71e-006	
-0.23905991	1.0323e-005	
-0.23855427	1.022e-005	
-0.23815947	7.23e-007	
-0.2378069	9.394e-006	
-0.23708169	7.949e-006	
-0.23641033	2.994e-006	
-0.23596486	7.743e-006	
-0.23557217	4.749e-006	
-0.23515098	-2.374e-006	
-0.23455773	4.955e-006	
-0.23377025	1.0323e-005	
-0.23295215	5.162e-006	
-0.232152	8.259e-006	
-0.23129801	5.781e-006	
-0.23028884	3.2e-006	
-0.22947709	1.2801e-005	
-0.22882472	2.684e-006	
-0.22831381	1.1149e-005	
-0.22781873	7.846e-006	
-0.22750204	1.5485e-005	
-0.22718325	1.3937e-005	
-0.22666811	8.878e-006	
-0.22618992	1.3627e-005	
-0.22565156	1.2078e-005	
-0.22519976	1.435e-005	
-0.22490419	2.9215e-005	
-0.22463606	2.8183e-005	
-0.22441966	2.488e-005	
-0.22424232	2.2505e-005	
-0.22407131	3.19e-005	
-0.22369235	3.2209e-005	
-0.22325638	3.5616e-005	
-0.22304631	4.6456e-005	
-0.22291858	4.3978e-005	
-0.22283097	5.1204e-005	
-0.22265996	5.5231e-005	
-0.22242139	6.2147e-005	
-0.22214904	7.4123e-005	
-0.22203715	8.362e-005	
-0.22184714	8.7956e-005	
-0.2215959	9.8176e-005	
-0.22128767	0.000102202	
-0.22099737	0.00012512	
-0.2205878	0.000158362	
-0.22003677	0.000199036	
-0.21928834	0.000265416	
-0.21852408	0.00033479	
-0.21808283	0.000396937	
-0.21768592	0.000464556	
-0.21726474	0.000549312	
-0.21685938	0.000628286	
-0.21651209	0.000714797	
-0.21623446	0.000796043	
-0.21602334	0.000877082	
-0.21570982	0.000996318	
-0.21537414	0.001175534	
-0.21490967	0.001433414	
-0.21442515	0.001712354	
-0.21398812	0.001962801	
-0.213682	0.002148832	
-0.2135701	0.002229252	
-0.21346876	0.002263836	
-0.2134561	0.002302962	
-0.21341176	0.002346423	
-0.21334948	0.002399693	
-0.21325553	0.00247526	
-0.21312252	0.002587683	
-0.21301063	0.002655818	
-0.21286284	0.002724159	
-0.21276889	0.002830284	
-0.21263061	0.002980594	
-0.2124786	0.003154958	
-0.21221259	0.003432865	
-0.21193918	0.003709741	
-0.21176606	0.003854992	
-0.21169217	0.003971234	
-0.2115655	0.004120925	
-0.21138182	0.00438562	
-0.21114009	0.004732489	
-0.21089624	0.005114148	
-0.21070623	0.005410328	
-0.21051517	0.005670686	
-0.21038005	0.005932799	
-0.21021537	0.006225882	
-0.20997997	0.006566042	
-0.20983746	0.006741129	
-0.20973613	0.006841886	
-0.20956195	0.007174198	
-0.20942366	0.0073083	
-0.20939411	0.007403174	
-0.20929699	0.007520655	
-0.20925477	0.007546773	
-0.20920199	0.00765775	
-0.20905843	0.007897255	
-0.20884837	0.00819932	
-0.20851057	0.008624545	
-0.20821922	0.008997636	
-0.20793632	0.009321689	
-0.20764075	0.00967754	
-0.20736418	0.010063845	
-0.20715622	0.010467699	
-0.20696621	0.01077885	
-0.20678887	0.011034562	
-0.20644474	0.011523585	
-0.20582827	0.012250668	
-0.20555592	0.012536628	
-0.20549047	0.012579574	
-0.20548836	0.012622521	
-0.20537435	0.012778406	
-0.20509251	0.013102563	
-0.20470615	0.01336065	
-0.2044148	0.01352438	
-0.20424591	0.01361853	
-0.20404745	0.013707211	
-0.20384266	0.013802394	
-0.20364104	0.013850708	
-0.20353548	0.013862786	
-0.20324941	0.013898196	
-0.2029739	0.01390728	
-0.20269944	0.0139111	
-0.20243765	0.013842552	
-0.20190773	0.013664369	
-0.2016111	0.013513334	
-0.20142532	0.013385529	
-0.2012332	0.013229335	
-0.20098407	0.012999948	
-0.20061461	0.012647195	
-0.20029581	0.012397674	
-0.20018181	0.012298569	
-0.2001512	0.01227338	
-0.20012164	0.012268115	
-0.20012692	0.012261817	
-0.19999813	0.01204967	
-0.19963078	0.0116453	
-0.19929193	0.01122214	
-0.19904069	0.010935147	
-0.19885279	0.010661885	
-0.19877046	0.010536042	
-0.19871345	0.010452833	
-0.19869234	0.010307891	
-0.19855932	0.010041856	
-0.19840203	0.009727196	
-0.19825002	0.009478504	
-0.19810646	0.00931374	
-0.19804101	0.009257271	
-0.19799456	0.009142474	
-0.19773911	0.008885936	
-0.1975301	0.008708785	
-0.19733375	0.008448633	
-0.19705718	0.008263945	
-0.19695584	0.008243504	
-0.19692418	0.008161226	
-0.19666661	0.007728466	
-0.19618419	0.007158816	
-0.19600052	0.007117316	
-0.19596674	0.007129394	
-0.19594351	0.0070881	
-0.1959224	0.007082939	
-0.19590973	0.007083868	
-0.19590551	0.007004893	
-0.19556138	0.006528568	
-0.19525103	0.006176433	
-0.19518559	0.006142985	
-0.19517186	0.00614825	
-0.19516025	0.006141023	
-0.19515814	0.006121822	
-0.19516236	0.006130597	
-0.19515603	0.00611604	
-0.19513492	0.005958814	
-0.19504836	0.005863838	
-0.1949998	0.005786515	
-0.19488157	0.005612771	
-0.19475173	0.005459674	
-0.19421337	0.0047871	
-0.19376262	0.004494327	
-0.19371301	0.004498353	
-0.19369823	0.004506405	
-0.19369823	0.004499592	
-0.19369401	0.004472234	
-0.193485	0.004248525	
-0.1932591	0.0039446	
-0.19298147	0.003721923	
-0.19290019	0.003627669	
-0.19277035	0.003527222	
-0.19266901	0.003461565	
-0.19261623	0.003416967	
-0.192422	0.003249624	
-0.19218976	0.003104166	
-0.19212326	0.003076293	
-0.19210215	0.003061324	
-0.1919892	0.002971716	
-0.19181608	0.002847215	
-0.19170629	0.002765969	
-0.19157857	0.002651998	
-0.19114049	0.002394221	
-0.19093675	0.002334861	
-0.19088397	0.002320615	
-0.1907953	0.002240195	
-0.19062218	0.002180216	
-0.19059896	0.002169995	
-0.1904934	0.002102273	
-0.19042795	0.00208276	
-0.19040684	0.002066965	
-0.19039417	0.002048486	
-0.19033506	0.001994701	
-0.19027805	0.001975602	
-0.19018094	0.001898589	
-0.19010916	0.001900654	
-0.1900986	0.001882794	
-0.19008804	0.001871129	
-0.19002893	0.001812595	
-0.18992126	0.001770991	
-0.18978403	0.001711631	
-0.18966369	0.001661872	
-0.18958663	0.001644013	
-0.18958135	0.001647523	
-0.18941245	0.001567412	
-0.18908627	0.001480592	
-0.18903349	0.001481934	
-0.18902716	0.001466449	
-0.18893637	0.001440124	
-0.18888148	0.001426394	
-0.18885404	0.001422471	
-0.18883292	0.001411631	
-0.18868303	0.001352271	
-0.18849091	0.001337509	
-0.18849724	0.001313662	
-0.18842968	0.001291776	
-0.18833256	0.001272058	
-0.18830934	0.001272264	
-0.18827345	0.001255024	
-0.18824389	0.001244081	
-0.18820167	0.001248727	
-0.18818372	0.001237887	
-0.18804756	0.001201445	
-0.18789977	0.001181211	
-0.1877826	0.00110936	
-0.18760104	0.001088403	
-0.18754403	0.001087268	
-0.18752292	0.001084997	
-0.18741314	0.0010468	
-0.18727802	0.001028218	
-0.18723368	0.001026669	
-0.1871619	0.001004267	
-0.18698667	0.000965348	
-0.18679666	0.000929525	
-0.18653065	0.000891019	
-0.1864082	0.000886373	
-0.18629208	0.00086872	
-0.18605457	0.000830833	
-0.18596167	0.000814006	
-0.18593001	0.000810083	
-0.185721	0.000775706	
-0.18558588	0.000763627	
-0.18555421	0.000760943	
-0.18552465	0.000753717	
-0.18547609	0.000737922	
-0.18542331	0.00073214	
-0.1854022	0.000724811	
-0.18529242	0.000703338	
-0.18521114	0.000707777	
-0.18521641	0.000709016	
-0.18514885	0.000691569	
-0.18473294	0.000635203	
-0.18426953	0.000567378	
-0.18406474	0.000553648	
-0.18397079	0.000549002	
-0.18394863	0.000543531	
-0.18388951	0.000536614	
-0.1836805	0.000515864	
-0.18357072	0.000513799	
-0.18351583	0.000507915	
-0.18344827	0.000506882	
-0.1831907	0.000488197	
-0.18299224	0.000471989	
-0.18290568	0.000468376	
-0.18276634	0.000462285	
-0.18263545	0.000452374	
-0.18244649	0.000444838	
-0.18233143	0.000440709	
-0.18218892	0.000429147	
-0.18199469	0.000408913	
-0.18170968	0.000392395	
-0.18147533	0.000389505	
-0.18139299	0.00039446	
-0.1813381	0.000389092	
-0.18130432	0.000380317	
-0.18116815	0.000375671	
-0.18102564	0.000369683	
-0.18087363	0.000358018	
-0.18058545	0.000353269	
-0.18048834	0.000347798	
-0.18041867	0.000337061	
-0.18022021	0.00033799	
-0.18014526	0.000334274	
-0.18009987	0.000329525	
-0.17988242	0.000319821	
-0.17966813	0.000312595	
-0.17962485	0.000305368	
-0.1795784	0.000308672	
-0.17940317	0.000291948	
-0.1791646	0.00028276	
-0.17906115	0.000279043	
-0.1790147	0.000279766	
-0.17874236	0.000268823	
-0.17842251	0.000260977	
-0.17821455	0.000254474	
-0.17814594	0.000250241	
-0.17812905	0.000242705	
-0.17805727	0.000243324	
-0.17784614	0.000241982	
-0.17761813	0.00023073	
-0.17746823	0.000218032	
-0.17725499	0.000210702	
-0.17695837	0.000211528	
-0.17676624	0.000200688	
-0.17656357	0.000197385	
-0.17639889	0.000188919	
-0.176268	0.000181487	
-0.17619833	0.000178183	
-0.17617405	0.000178699	
-0.17612443	0.000175705	
-0.17591331	0.000165072	
-0.1757233	0.000158568	
-0.17550796	0.000151032	
-0.17521978	0.000141844	
-0.17472997	0.00012956	
-0.17447452	0.000130798	
-0.17441962	0.000127185	
-0.17439007	0.000125017	
-0.17435418	0.000127495	
-0.17432462	0.000114591	
-0.17417472	0.000112216	
-0.17389182	0.000109222	
-0.17375248	9.8692e-005	
-0.1736997	0.000100964	
-0.1735973	9.4047e-005	
-0.17349702	9.1363e-005	
-0.17337985	9.1569e-005	
-0.17330173	9.4769e-005	
-0.17305789	8.2278e-005	
-0.17267259	7.1955e-005	
-0.17230313	7.3503e-005	
-0.17214267	6.607e-005	
-0.17200967	6.7825e-005	
-0.17170037	5.8431e-005	
-0.1713288	5.1721e-005	
-0.1711409	5.0998e-005	
-0.17088544	4.2739e-005	
-0.17039353	3.9023e-005	
-0.16996812	2.8906e-005	
-0.16977599	3.1693e-005	
-0.16966832	3.2416e-005	
-0.16938753	2.2815e-005	
-0.16892728	2.0853e-005	
-0.16863171	2.137e-005	
-0.16853037	2.5912e-005	
-0.16818519	1.5795e-005	
-0.16739559	2.1989e-005	
-0.16666301	1.1356e-005	
-0.16654373	1.3627e-005	
-0.16648461	7.743e-006	
-0.16639594	1.6827e-005	
-0.16617426	5.471e-006	
-0.16576257	1.6105e-005	
-0.16525588	6.297e-006	
-0.16503843	1.2698e-005	
-0.16490753	8.259e-006	
-0.1647418	1.2698e-005	
-0.16457501	9.085e-006	
-0.16433117	2.787e-006	
-0.1640831	4.955e-006	
-0.16382975	9.085e-006	
-0.16355318	3.716e-006	
-0.16333784	9.29e-007	
-0.16310138	1.1149e-005	
-0.16283537	1.373e-005	
-0.16278364	7.23e-007	
-0.16250918	1.0117e-005	
-0.16222839	5.162e-006	
-0.1619286	-1.032e-006	
-0.16171114	6.091e-006	
-0.16120656	3.82e-006	
-0.16086666	4.439e-006	
-0.16077904	5.368e-006	
-0.16057003	4.026e-006	
-0.16031879	-1.03e-007	
-0.15992611	2.994e-006	
-0.15934658	6.19e-007	
-0.1586351	5.678e-006	
-0.1582023	4.233e-006	
-0.15765866	2.581e-006	
-0.15713507	4.749e-006	
-0.15689545	1.6414e-005	
-0.15649642	1.1562e-005	
-0.15571105	1.1253e-005	
-0.154742	2.684e-006	
-0.15336442	6.504e-006	
-0.15218531	8.981e-006	
-0.1514126	1.5279e-005	
-0.15111914	1.2904e-005	
-0.15075073	2.5086e-005	
-0.15061139	3.6339e-005	
-0.15038338	4.0674e-005	
-0.14999281	8.981e-006	
