#INFO
#COMMENT: 

#DATA:
-0.45106837	-0.000135031	
-0.45103248	-0.000155265	
-0.45099237	-0.000159085	
-0.45097126	-0.000146077	
-0.45095859	-0.000163111	
-0.45095648	-0.000148864	
-0.45095014	-0.000145871	
-0.45094592	-0.00016404	
-0.45094381	-0.000173228	
-0.45093748	-0.000146697	
-0.45093748	-0.000149277	
-0.45093325	-0.000151342	
-0.45093114	-0.000139573	
-0.45092903	-0.000151549	
-0.45093009	-0.000135444	
-0.45092903	-0.000144219	
-0.45092481	-0.000141328	
-0.45092481	-0.000149587	
-0.4509227	-0.000157949	
-0.4509227	-0.000151032	
-0.45092059	-0.000157846	
-0.45091425	-0.000164556	
-0.45091636	-0.000158259	
-0.45091425	-0.000147316	
-0.45091425	-0.000155059	
-0.45091214	-0.000151858	
-0.45091003	-0.000141328	
-0.45091003	-0.000147522	
-0.45090897	-0.000159085	
-0.45091003	-0.000158775	
-0.45090581	-0.000158465	
-0.4509037	-0.000154233	
-0.45090159	-0.000162904	
-0.4509037	-0.000151032	
-0.45089947	-0.000151961	
-0.4508847	-0.000150619	
-0.45081714	-0.000146593	
-0.4507918	-0.000165382	
-0.45077069	-0.000164866	
-0.45074113	-0.000205437	
-0.45071369	-0.0002266	
-0.45069046	-0.000249002	
-0.45065668	-0.000270372	
-0.45062502	-0.000270475	
-0.45059335	-0.000267068	
-0.4505659	-0.000286683	
-0.45044978	-0.000282037	
-0.45027139	-0.000260874	
-0.45025344	-0.000261597	
-0.45001174	-0.00027254	
-0.44906169	-0.000256641	
-0.44822353	-0.000268204	
-0.44765878	-0.000265003	
-0.44719854	-0.000283379	
-0.44693674	-0.000283689	
-0.44668973	-0.000284618	
-0.4462886	-0.000275843	
-0.44602892	-0.000274088	
-0.44585052	-0.00028596	
-0.44570907	-0.000281005	
-0.44561195	-0.000287818	
-0.44559295	-0.000289986	
-0.44553806	-0.000305884	
-0.44542617	-0.000310633	
-0.44533961	-0.00032777	
-0.44528049	-0.000329422	
-0.44526571	-0.000316827	
-0.4451401	-0.000347385	
-0.4449617	-0.000424398	
-0.44471257	-0.000751032	
-0.44465346	-0.000789952	
-0.44457746	-0.00078479	
-0.44446451	-0.000648417	
-0.4444455	-0.000611562	
-0.44442545	-0.000595045	
-0.44438111	-0.000530833	
-0.44430089	-0.000376497	
-0.44420483	-0.000228562	
-0.44408237	-7.1438e-005	
-0.44399793	-5.162e-006	
-0.44399159	2.5912e-005	
-0.44396098	4.13e-007	
-0.4439367	7.5361e-005	
-0.44391348	7.5258e-005	
-0.44387125	6.2767e-005	
-0.44380897	0.00019883	
-0.44364535	0.000183964	
-0.44352079	0.000220716	
-0.44341734	0.000268823	
-0.44328011	0.000176325	
-0.44318088	0.000203063	
-0.44305527	0.000203889	
-0.44288953	0.000131211	
-0.44280825	0.000167447	
-0.44280086	0.000125224	
-0.44273436	0.000114487	
-0.44269319	0.000128837	
-0.44261719	2.839e-005	
-0.44259819	4.5733e-005	
-0.44256124	3.4893e-005	
-0.44253379	-5.9979e-005	
-0.44245779	-0.000142154	
-0.44242612	-0.00021989	
-0.4424219	-0.000228045	
-0.44234801	-0.00038393	
-0.44229839	-0.000581521	
-0.44225511	-0.000616105	
-0.44225722	-0.000653476	
-0.44219178	-0.000713145	
-0.44210733	-0.000758259	
-0.44201866	-0.000762079	
-0.44199121	-0.000751755	
-0.4419321	-0.000755265	
-0.4418772	-0.00074298	
-0.44184976	-0.000752787	
-0.44183709	-0.000745148	
-0.44182865	-0.000749174	
-0.44177798	-0.000749587	
-0.44172836	-0.00072894	
-0.44165342	-0.000719649	
-0.44164708	-0.000721611	
-0.44155524	-0.000706951	
-0.44134307	-0.000713352	
-0.44122484	-0.000724295	
-0.44118472	-0.00073245	
-0.44110661	-0.000731005	
-0.44096938	-0.000722643	
-0.44080471	-0.000701789	
-0.44067698	-0.000718926	
-0.44065586	-0.000721094	
-0.44064742	-0.000722436	
-0.44064003	-0.000717068	
-0.44063264	-0.000720991	
-0.44062736	-0.000721198	
-0.4406242	-0.000718101	
-0.44062631	-0.000723778	
-0.44060731	-0.000726256	
-0.44059042	-0.000731831	
-0.44059042	-0.000733586	
-0.44055664	-0.000734928	
-0.44053975	-0.000737405	
-0.44050174	-0.000727288	
-0.44042152	-0.000692085	
-0.44035607	-0.000661218	
-0.4403244	-0.00063448	
-0.44025895	-0.000616724	
-0.44023784	-0.000591122	
-0.44021462	-0.000554886	
-0.44017028	-0.000365657	
-0.44008583	-0.000264074	
-0.44004572	-0.000238162	
-0.44003094	-0.00024095	
-0.4400225	-0.000252822	
-0.44001616	-0.000244563	
-0.44001405	-0.000257467	
-0.43999294	-0.000272127	
-0.43996549	-0.000365244	
-0.4399296	-0.000473538	
-0.43987893	-0.000723985	
-0.43982193	-0.000798933	
-0.43980926	-0.000842498	
-0.43972061	-0.000862216	
-0.43965094	-0.000804198	
-0.43961294	-0.000801927	
-0.43960872	-0.000796662	
-0.43960872	-0.000787268	
-0.4395496	-0.000738644	
-0.43948838	-0.000713765	
-0.43940393	-0.000680007	
-0.43934271	-0.000679594	
-0.43930259	-0.000678975	
-0.43922448	-0.000693944	
-0.43919914	-0.000701789	
-0.43918542	-0.000696008	
-0.43918014	-0.000702822	
-0.4391527	-0.000699828	
-0.43913475	-0.000705712	
-0.43910625	-0.000714074	
-0.43904502	-0.00072925	
-0.43897219	-0.000714384	
-0.43893102	-0.000710461	
-0.43887929	-0.000695802	
-0.43885185	-0.000697763	
-0.4387864	-0.000687543	
-0.43877162	-0.000696525	
-0.43872728	-0.000695595	
-0.43871251	-0.000703648	
-0.43864495	-0.00071139	
-0.43856472	-0.000717171	
-0.43849294	-0.000714591	
-0.43840638	-0.000693015	
-0.43818892	-0.000566449	
-0.43791869	-0.00020265	
-0.43777724	-8.1659e-005	
-0.43769279	6.5038e-005	
-0.43756822	8.2588e-005	
-0.43739722	0.000159085	
-0.4373001	0.000113558	
-0.43723993	0.000186648	
-0.43719771	0.000141844	
-0.43711748	0.00016022	
-0.4370837	0.000169098	
-0.43700242	0.00018541	
-0.43694647	0.000175705	
-0.43685569	0.000236201	
-0.43678813	0.000250551	
-0.43678813	0.000187784	
-0.43665512	0.00021669	
-0.43655801	0.000259842	
-0.43652845	0.000190055	
-0.43651367	0.000263765	
-0.43650311	0.000190262	
-0.436463	0.000263352	
-0.43645244	0.000192429	
-0.43639333	0.000259119	
-0.4363585	0.000196456	
-0.4363036	0.000200585	
-0.43624132	0.000276772	
-0.43617376	0.000204818	
-0.43611254	0.00029618	
-0.4361062	0.000225878	
-0.43602176	0.000284102	
-0.43589508	0.000248486	
-0.43579797	0.000345114	
-0.43573357	0.000293703	
-0.43573569	0.000293083	
-0.43569029	0.00037722	
-0.43567235	0.000308052	
-0.43562062	0.00033799	
-0.43560796	0.000403028	
-0.43555412	0.000355953	
-0.43549078	0.000427598	
-0.43536411	0.000325293	
-0.43517199	0.000174054	
-0.43506221	5.234e-005	
-0.43501998	3.4377e-005	
-0.43492709	-0.000226394	
-0.43479197	-0.000372677	
-0.43470752	-0.000464659	
-0.43469063	-0.000459188	
-0.43467163	-0.000468169	
-0.43465052	-0.000501927	
-0.43461885	-0.000493565	
-0.43459985	-0.000520303	
-0.4345154	-0.000493049	
-0.43442462	-0.000445045	
-0.43426839	-0.000369787	
-0.43404671	-0.000326635	
-0.43378597	-0.000295458	
-0.43355163	-0.000303304	
-0.43347351	-0.000295664	
-0.43335951	-0.000297522	
-0.43324761	-0.000280798	
-0.43320328	-0.00028658	
-0.43310616	-0.00027925	
-0.43294993	-0.000263455	
-0.43280214	-0.000279456	
-0.43266492	-0.00025788	
-0.43251291	-0.000267378	
-0.43239257	-0.000261803	
-0.43226378	-0.000239608	
-0.43211283	-0.00024415	
-0.43188482	-0.000228768	
-0.4314288	-0.000218341	
-0.43081232	-0.000180764	
-0.43057164	-0.000184687	
-0.43041752	-0.000187474	
-0.42987177	-0.00016435	
-0.42882886	-0.000162595	
-0.42820288	-0.000152168	
-0.42804876	-0.000147935	
-0.42757374	-0.000141122	
-0.4271895	-0.00013978	
-0.42646429	-0.000131521	
-0.42553113	-0.000128321	
-0.42395722	-0.000118513	
-0.42239386	-0.000114694	
-0.42159371	-0.000111906	
-0.42110813	-0.000106745	
-0.4199649	-9.9415e-005	
-0.4192682	-9.2395e-005	
-0.41840576	-9.8383e-005	
-0.417499	-9.1982e-005	
-0.4170113	-9.2189e-005	
-0.41667984	-8.6407e-005	
-0.4163906	-8.8472e-005	
-0.41609714	-7.4845e-005	
-0.4156654	-8.2485e-005	
-0.41509537	-8.6511e-005	
-0.41468157	-8.6614e-005	
-0.41424772	-7.5465e-005	
-0.41388459	-8.713e-005	
-0.41358268	-8.393e-005	
-0.41320477	-7.8975e-005	
-0.41271708	-8.7027e-005	
-0.41202143	-8.9401e-005	
-0.41174909	-8.9608e-005	
-0.41113472	-8.4033e-005	
-0.41039685	-8.6304e-005	
-0.40979093	-9.0227e-005	
-0.40927157	-8.744e-005	
-0.40857381	-6.1734e-005	
-0.40824026	-7.7632e-005	
-0.40814948	-7.8975e-005	
-0.40766812	-9.1363e-005	
-0.4068648	-9.033e-005	
-0.40607942	-9.2085e-005	
-0.40547245	-8.1555e-005	
-0.40491298	-9.3427e-005	
-0.40457518	-8.4446e-005	
-0.40419516	-7.3297e-005	
-0.40375497	-7.1438e-005	
-0.40336967	-8.4859e-005	
-0.40311738	-7.9697e-005	
-0.40283659	-8.1555e-005	
-0.4026508	-8.4446e-005	
-0.40238901	-8.0936e-005	
-0.40201638	-8.4962e-005	
-0.40165536	-7.309e-005	
-0.40152341	-8.073e-005	
-0.40150547	-6.9064e-005	
-0.4014928	-7.9594e-005	
-0.40148858	-7.4639e-005	
-0.40133868	-7.8252e-005	
-0.40114973	-8.0833e-005	
-0.40069898	-7.4535e-005	
-0.4003728	-7.5774e-005	
-0.39981543	-7.722e-005	
-0.39901212	-7.98e-005	
-0.39835764	-7.0613e-005	
-0.39759552	-7.3297e-005	
-0.3970656	-8.1968e-005	
-0.39626861	-7.3916e-005	
-0.39542202	-7.5568e-005	
-0.3948446	-6.6277e-005	
-0.39422601	-6.9787e-005	
-0.39390721	-7.3503e-005	
-0.39362642	-6.1941e-005	
-0.39333191	-7.1748e-005	
-0.39280199	-7.5258e-005	
-0.39239453	-6.638e-005	
-0.3918815	-6.4625e-005	
-0.39117952	-6.6483e-005	
-0.39016191	-7.1025e-005	
-0.38930792	-6.669e-005	
-0.38853205	-6.4728e-005	
-0.38766011	-6.1941e-005	
-0.38663828	-6.8238e-005	
-0.38599542	-6.7619e-005	
-0.3852206	-6.5761e-005	
-0.38434972	-6.8032e-005	
-0.38369524	-6.287e-005	
-0.38296159	-6.8445e-005	
-0.38231345	-6.5761e-005	
-0.38163575	-6.1321e-005	
-0.38124728	-5.5953e-005	
-0.38081554	-5.6573e-005	
-0.38039963	-5.8844e-005	
-0.37990455	-6.0805e-005	
-0.37932185	-6.3283e-005	
-0.3787476	-5.7915e-005	
-0.377996	-5.9979e-005	
-0.37730458	-5.1101e-005	
-0.37659945	-6.4212e-005	
-0.37571063	-6.3076e-005	
-0.37491998	-5.265e-005	
-0.37444284	-6.1528e-005	
-0.37400265	-5.5024e-005	
-0.37347273	-5.8637e-005	
-0.37290059	-5.8018e-005	
-0.3724509	-5.3063e-005	
-0.37194738	-4.6559e-005	
-0.37113456	-5.7502e-005	
-0.37058775	-4.5939e-005	
-0.37001667	-6.1528e-005	
-0.36929674	-5.4198e-005	
-0.36868554	-5.234e-005	
-0.36836886	-5.0998e-005	
-0.36815352	-4.9862e-005	
-0.36807223	-5.6986e-005	
-0.36767427	-5.5231e-005	
-0.36711902	-5.5127e-005	
-0.36665138	-5.1101e-005	
-0.36623971	-5.967e-005	
-0.36583225	-6.1734e-005	
-0.36521999	-5.4818e-005	
-0.36467002	-5.0379e-005	
-0.36425833	-5.1411e-005	
-0.3637812	-5.8328e-005	
-0.36321434	-5.6366e-005	
-0.36277942	-5.936e-005	
-0.3623994	-5.3476e-005	
-0.3621165	-5.4405e-005	
-0.36158975	-5.9876e-005	
-0.36109361	-5.4818e-005	
-0.36059326	-5.1204e-005	
-0.36015201	-5.6882e-005	
-0.35959676	-5.1308e-005	
-0.35913335	-5.6986e-005	
-0.35865621	-4.914e-005	
-0.35815163	-5.4714e-005	
-0.35755943	-5.3372e-005	
-0.35689018	-4.8004e-005	
-0.35639404	-5.4714e-005	
-0.35579973	-5.3579e-005	
-0.35498269	-5.5334e-005	
-0.35426382	-5.8637e-005	
-0.353413	-5.2134e-005	
-0.35245345	-4.9553e-005	
-0.35131972	-5.5747e-005	
-0.35040767	-5.2546e-005	
-0.34962547	-5.9773e-005	
-0.34792066	-5.0275e-005	
-0.34522148	-5.6056e-005	
-0.34332349	-5.0688e-005	
-0.34194592	-5.6469e-005	
-0.34068025	-5.0895e-005	
-0.33939451	-5.8328e-005	
-0.33788182	-5.4714e-005	
-0.33630791	-5.3476e-005	
-0.33439622	-5.8224e-005	
-0.3323705	-5.0688e-005	
-0.33081559	-5.7295e-005	
-0.32909389	-4.4184e-005	
-0.32734369	-2.777e-005	
-0.32598828	-5.3476e-005	
-0.32471627	-5.5231e-005	
-0.32336298	-5.5644e-005	
-0.32220287	-4.7075e-005	
-0.32134782	-5.3992e-005	
-0.32051706	-5.2959e-005	
-0.31966518	-5.0688e-005	
-0.3191036	-6.1838e-005	
-0.31860113	-5.6676e-005	
-0.31806804	-6.3593e-005	
-0.31765741	-3.4067e-005	
-0.31722989	-4.8933e-005	
-0.31661552	-5.0998e-005	
-0.31584598	-4.501e-005	
-0.31522951	-5.0585e-005	
-0.31472704	-5.3063e-005	
-0.31428262	-4.6559e-005	
-0.31385195	-5.2134e-005	
-0.31339698	-4.6146e-005	
-0.31278789	-4.8933e-005	
-0.31215769	-5.0482e-005	
-0.31168478	-4.2429e-005	
-0.31123298	-5.265e-005	
-0.31085296	-4.2017e-005	
-0.31020376	-4.5114e-005	
-0.30929382	-4.3462e-005	
-0.30826988	-3.9023e-005	
-0.30732511	-4.3462e-005	
-0.30639723	-4.883e-005	
-0.30534478	-4.6972e-005	
-0.30473675	-4.914e-005	
-0.30411183	-4.3462e-005	
-0.30325997	-5.7915e-005	
-0.30272161	-5.5747e-005	
-0.30178318	-5.0791e-005	
-0.30068534	-4.914e-005	
-0.29966245	-4.6869e-005	
-0.29849389	-4.9449e-005	
-0.29732639	-4.8933e-005	
-0.29634151	-3.861e-005	
-0.29534923	-4.7385e-005	
-0.29426512	-2.4467e-005	
-0.29330029	-4.212e-005	
-0.29185727	-5.1617e-005	
-0.29052826	-9.4976e-005	
-0.28999834	-4.1294e-005	
-0.28968061	-3.6648e-005	
-0.28955393	-4.6765e-005	
-0.28953071	-5.3166e-005	
-0.2895096	-8.0936e-005	
-0.28950432	-7.0406e-005	
-0.28950326	-3.5203e-005	
-0.28950326	-2.9112e-005	
-0.28950854	0.000259016	
-0.28950326	-0.000104577	
-0.28950326	-4.5527e-005	
-0.28950115	-5.265e-005	
-0.28949904	-3.479e-005	
-0.28949693	-3.9229e-005	
-0.28949904	-4.1604e-005	
-0.28908102	-4.4288e-005	
-0.28880023	-3.0764e-005	
-0.28875167	-2.777e-005	
-0.28872633	-3.8197e-005	
-0.28872	-3.3964e-005	
-0.28871367	-4.4701e-005	
-0.28871156	-5.5437e-005	
-0.28870522	-6.6483e-005	
-0.28870522	-5.6366e-005	
-0.28870311	-5.585e-005	
-0.288701	-6.0599e-005	
-0.288701	-3.9745e-005	
-0.28869678	-4.4184e-005	
-0.28869255	-5.6779e-005	
-0.28869255	-5.0172e-005	
-0.28869255	-4.7075e-005	
-0.28869044	-4.4804e-005	
-0.28869255	-4.7694e-005	
-0.28869255	-4.7798e-005	
-0.28869255	-4.7694e-005	
-0.28868833	-5.3785e-005	
-0.28869044	-5.203e-005	
-0.28869044	-5.0069e-005	
-0.28868833	1.03e-007	
-0.28869255	0.000187681	
-0.28868833	-9.3531e-005	
-0.28868622	-4.3255e-005	
-0.28868833	-5.4611e-005	
-0.28868622	-6.2147e-005	
-0.28869044	-5.5747e-005	
-0.28868411	-5.1617e-005	
-0.28868833	-5.1824e-005	
-0.28868622	-5.2237e-005	
-0.28868622	-5.0172e-005	
-0.28868622	-5.2546e-005	
-0.28868622	-5.4301e-005	
-0.28868411	-5.0172e-005	
-0.288682	-5.7605e-005	
-0.28868411	-4.8933e-005	
-0.28868411	-5.9257e-005	
-0.288682	-5.8637e-005	
-0.28868622	-5.0275e-005	
-0.288682	-5.6469e-005	
-0.288682	-6.0289e-005	
-0.28868622	-5.0688e-005	
-0.28868411	-5.2959e-005	
-0.28868411	-5.5334e-005	
-0.28868622	-5.6986e-005	
-0.288682	-6.3902e-005	
-0.28868622	-7.4329e-005	
-0.28868622	-6.5657e-005	
-0.288682	-5.3372e-005	
-0.28868305	-6.1012e-005	
-0.288682	-5.1721e-005	
-0.288682	-5.3372e-005	
-0.28868411	-5.6469e-005	
-0.288682	-5.8844e-005	
-0.28869255	-5.8018e-005	
-0.28850677	-5.7605e-005	
-0.28806974	-5.4921e-005	
-0.28778895	-5.0275e-005	
-0.28740365	-6.2354e-005	
-0.28684524	-6.1425e-005	
-0.28679985	-7.0303e-005	
-0.2867914	-7.8045e-005	
-0.28678929	-7.7116e-005	
-0.28677873	-8.3827e-005	
-0.28674284	-8.0317e-005	
-0.28672384	-6.4006e-005	
-0.28670695	-5.7192e-005	
-0.28671329	-5.0379e-005	
-0.28671117	-5.5644e-005	
-0.28671329	-4.7488e-005	
-0.28670695	-4.2017e-005	
-0.28671117	-4.6456e-005	
-0.28670695	-4.8004e-005	
-0.28670695	-4.4597e-005	
-0.28670695	-5.1308e-005	
-0.28670484	-4.5527e-005	
-0.28670695	-4.9656e-005	
-0.28670695	-5.2753e-005	
-0.28671012	-4.7281e-005	
-0.28670695	-5.2134e-005	
-0.28670695	-5.3372e-005	
-0.28670695	-5.0275e-005	
-0.28670484	-4.8624e-005	
-0.28670695	-5.3269e-005	
-0.28670484	-4.3772e-005	
-0.28670695	-5.2237e-005	
-0.28670484	-4.5114e-005	
-0.28670484	-5.5127e-005	
-0.28670484	-5.7811e-005	
-0.28670484	-4.9759e-005	
-0.28670378	-6.287e-005	
-0.28670484	-6.0702e-005	
-0.28670484	-6.4315e-005	
-0.28670906	-5.5127e-005	
-0.28670484	-5.3269e-005	
-0.28670378	-4.6662e-005	
-0.28670273	-5.8224e-005	
-0.28670273	-5.8121e-005	
-0.28670273	-6.4418e-005	
-0.28670484	-6.638e-005	
-0.28670273	-6.3386e-005	
-0.28670273	-7.34e-005	
-0.28670273	-8.1246e-005	
-0.28670273	-7.7736e-005	
-0.28670167	-7.9594e-005	
-0.28670062	-8.0833e-005	
-0.28670695	-6.0908e-005	
-0.28601236	-6.0805e-005	
-0.28509292	-8.393e-005	
-0.28406159	-0.000125327	
-0.28292787	-8.6717e-005	
-0.28199366	-6.4625e-005	
-0.28003234	-7.2677e-005	
-0.27698479	-6.5038e-005	
-0.27481763	-7.4123e-005	
-0.27205404	-7.7736e-005	
-0.27015922	-7.8975e-005	
-0.26851352	-5.6779e-005	
-0.26716234	-8.4652e-005	
-0.26554198	-8.0626e-005	
-0.26377594	-7.3606e-005	
-0.26272561	-8.3207e-005	
-0.26188957	-9.5079e-005	
-0.26086458	-7.5671e-005	
-0.25936667	-7.9594e-005	
-0.25753096	-9.095e-005	
-0.25507245	-8.7233e-005	
-0.25309107	-9.0847e-005	
-0.25075395	-9.446e-005	
-0.24866489	-8.9504e-005	
-0.24721132	-9.3531e-005	
-0.24559729	-8.3001e-005	
-0.24375525	-8.8162e-005	
-0.24237874	-9.6112e-005	
-0.2409885	-8.4446e-005	
-0.23943571	-9.5079e-005	
-0.23785546	-0.00010468	
-0.23680935	-0.000101789	
-0.23560806	-9.4976e-005	
-0.23435717	-9.6731e-005	
-0.23302815	-8.8266e-005	
-0.23176564	-0.000103854	
-0.23070898	-9.6731e-005	
-0.23027407	-9.766e-005	
-0.22985711	-8.7027e-005	
-0.22921213	-8.9401e-005	
-0.22843204	-9.1672e-005	
-0.22741971	-0.000106745	
-0.22599147	-0.000100138	
-0.22482396	-0.000107054	
-0.22408609	-0.000110048	
-0.22348228	-0.000115107	
-0.22330283	-0.000119133	
-0.22315082	-0.000113971	
-0.22287319	-0.000124708	
-0.22282463	-0.00010819	
-0.22281513	-0.000120991	
-0.22282041	-0.000115003	
-0.2228278	-0.000121094	
-0.22282463	-0.000101583	
-0.22282358	-9.7247e-005	
-0.22282252	-9.1363e-005	
-0.22282041	-9.8796e-005	
-0.22282041	-9.7866e-005	
-0.2228183	-9.5079e-005	
-0.22281619	-7.9284e-005	
-0.2228183	-8.4859e-005	
-0.22281408	-7.9697e-005	
-0.22281619	-8.8988e-005	
-0.22281408	-8.3104e-005	
-0.22280986	-8.2897e-005	
-0.22280986	-9.5492e-005	
-0.22280986	-7.8458e-005	
-0.22280986	-8.8059e-005	
-0.22281408	-9.0124e-005	
-0.22281513	-8.5995e-005	
-0.22281619	-8.1142e-005	
-0.22281408	-9.6112e-005	
-0.22281619	-7.4226e-005	
-0.22281408	-6.5864e-005	
-0.22281197	-7.9078e-005	
-0.22281302	-0.000112423	
-0.22281302	-8.8885e-005	
-0.22281197	-9.4666e-005	
-0.22281619	-9.6318e-005	
-0.22281302	-9.0227e-005	
-0.22281725	-0.000105609	
-0.22281197	-0.000108913	
-0.22280563	-9.2498e-005	
-0.22274863	-0.000107364	
-0.22271274	-0.000110564	
-0.22264307	-0.000111906	
-0.22255862	-0.000103131	
-0.22241928	-0.000110461	
-0.22213849	-0.000116346	
-0.2217458	-0.000118926	
-0.22110821	-0.000126669	
-0.22022044	-0.000148142	
-0.21957652	-0.000179112	
-0.21900016	-0.0001819	
-0.21856841	-0.000210908	
-0.21825807	-0.000208534	
-0.21781893	-0.000234652	
-0.21752653	-0.000258293	
-0.2172584	-0.000256435	
-0.21719718	-0.00025819	
-0.21715073	-0.000281934	
-0.21702617	-0.000287612	
-0.21686149	-0.000294735	
-0.21664087	-0.000316621	
-0.21638647	-0.000318892	
-0.21614368	-0.000337371	
-0.21598745	-0.000367309	
-0.21580905	-0.000354508	
-0.21540792	-0.000379904	
-0.21513557	-0.000386098	
-0.21503634	-0.000405816	
-0.21492023	-0.000419856	
-0.21480411	-0.000426153	
-0.21464682	-0.000425327	
-0.21448743	-0.000397557	
-0.21424675	-0.000429043	
-0.21399657	-0.000400344	
-0.21376433	-0.00039797	
-0.21358066	-0.000375052	
-0.21326609	-0.000374948	
-0.21295996	-0.000341294	
-0.21284806	-0.000317756	
-0.21281217	-0.000298245	
-0.21274884	-0.000294735	
-0.21267811	-0.00028245	
-0.21261794	-0.000275224	
-0.21248916	-0.000235478	
-0.21231181	-0.000205747	
-0.21212919	-0.000194804	
-0.2120743	-0.00017746	
-0.21180195	-0.000128527	
-0.21169428	-0.000123056	
-0.21164572	-0.000112526	
-0.21153172	-8.8988e-005	
-0.21148738	-7.7736e-005	
-0.21141243	-5.0585e-005	
-0.21120659	2.891e-006	
-0.21106514	2.0028e-005	
-0.21097858	4.5217e-005	
-0.21087935	7.3503e-005	
-0.21073368	9.4769e-005	
-0.2105405	0.000139264	
-0.21040327	0.000175189	
-0.21032938	0.000168582	
-0.21018582	0.000214212	
-0.21012037	0.000233723	
-0.20993352	0.000282037	
-0.20962423	0.000331796	
-0.20941733	0.000392395	
-0.20926743	0.000374432	
-0.2090521	0.000442154	
-0.20883359	0.000475705	
-0.2084409	0.000507708	
-0.20817172	0.000521748	
-0.20806933	0.000535169	
-0.20801866	0.000536304	
-0.20793104	0.000489229	
-0.2077822	0.000507502	
-0.20761753	0.000573366	
-0.20752674	0.000525568	
-0.20739796	0.000535995	
-0.20733884	0.000595974	
-0.20729662	0.000537337	
-0.20717417	0.000603407	
-0.20701688	0.00059649	
-0.20684165	0.000555919	
-0.20666431	0.000577598	
-0.20650808	0.000559222	
-0.20637085	0.000566965	
-0.20629062	0.000623641	
-0.20618295	0.000564797	
-0.2060225	0.000593393	
-0.20593383	0.000564281	
-0.20574804	0.000616724	
-0.20550736	0.000565416	
-0.2053638	0.000614763	
-0.20531207	0.000627357	
-0.20523396	0.00062777	
-0.20502495	0.00062426	
-0.20499117	0.000610324	
-0.2049405	0.000559429	
-0.20492994	0.00062457	
-0.20494472	0.000557984	
-0.20487927	0.000620234	
-0.20486238	0.000559119	
-0.20486027	0.00062106	
-0.20478216	0.000623021	
-0.20476316	0.000596077	
-0.20467026	0.000559739	
-0.20461537	0.000620957	
-0.20458792	0.000556435	
-0.20454148	0.000580076	
-0.20445281	0.000596284	
-0.20441058	0.000551583	
-0.20439791	0.000551583	
-0.20433563	0.000572023	
-0.20404323	0.000543118	
-0.20388067	0.000603613	
-0.20374344	0.000537027	
-0.20342675	0.000584308	
-0.20306257	0.000532898	
-0.20291478	0.000590812	
-0.20274589	0.000527013	
-0.20266144	0.000585238	
-0.20254532	0.000552925	
-0.20235742	0.000527839	
-0.20189929	0.00053331	
-0.20164277	0.000506056	
-0.20133031	0.000563971	
-0.20083629	0.000508121	
-0.20061461	0.000560358	
-0.20058716	0.000549312	
-0.20043938	0.000493978	
-0.20020503	0.000556641	
-0.20009947	0.000534756	
-0.19989996	0.000493152	
-0.19978384	0.000551273	
-0.19957694	0.000487474	
-0.19937427	0.000485513	
-0.19932254	0.000548899	
-0.19923704	0.000483964	
-0.19904069	0.00054766	
-0.1989478	0.000480454	
-0.19892458	0.000480764	
-0.19891191	0.000543324	
-0.19880529	0.000476841	
-0.1985572	0.000477667	
-0.19837986	0.000538988	
-0.19829541	0.000473228	
-0.19828063	0.000534446	
-0.19815291	0.000472918	
-0.19791434	0.000534033	
-0.19787211	0.00047075	
-0.19787845	0.000466621	
-0.1975871	0.000516999	
-0.19745409	0.000528355	
-0.19730314	0.000458775	
-0.1971543	0.000459807	
-0.19706774	0.000517928	
-0.19687667	0.000451755	
-0.196712	0.000509876	
-0.19666133	0.000478286	
-0.19642593	0.000503992	
-0.19634253	0.000441328	
-0.19625809	0.000507502	
-0.19622219	0.00043658	
-0.19616097	0.000499243	
-0.19605752	0.000433379	
-0.19598574	0.000494907	
-0.19597518	0.000430695	
-0.19596463	0.000487784	
-0.19576406	0.000481074	
-0.19510325	0.000455988	
-0.19443505	0.000359876	
-0.19372779	0.00038744	
-0.19338788	0.000312182	
-0.1932401	0.000311356	
-0.19296141	0.000326428	
-0.19252123	0.000245699	
-0.19212432	0.000265623	
-0.19179919	0.00018448	
-0.19131889	0.000176635	
-0.19086075	0.000146387	
-0.19050395	7.4742e-005	
-0.19001204	6.638e-005	
-0.18956235	-4.13e-007	
-0.189214	2.891e-006	
-0.18894271	-3.51e-006	
-0.18864291	-5.1514e-005	
-0.18826289	-6.3076e-005	
-0.18763165	-0.000115416	
-0.18692545	-0.000146077	
-0.18618863	-0.000160427	
-0.18514041	-0.000214418	
-0.18436137	-0.000215554	
-0.18375439	-0.000222987	
-0.18303658	-0.000232381	
-0.18213825	-0.000231349	
-0.18136766	-0.000221542	
-0.18057278	-0.000240124	
-0.17983175	-0.000221645	
-0.17940106	-0.000214212	
-0.17891337	-0.000220613	
-0.17856607	-0.000184893	
-0.17824094	-0.000208431	
-0.17801926	-0.00017395	
-0.1775569	-0.000185616	
-0.17700692	-0.000145251	
-0.1764749	-0.000163214	
-0.17606954	-0.000110255	
-0.17564096	-9.2292e-005	
-0.17499599	-0.0001085	
-0.17453574	-7.5465e-005	
-0.17429928	-0.000110151	
-0.17399105	-5.6263e-005	
-0.17375881	-9.064e-005	
-0.17357514	-3.7887e-005	
-0.17326056	-7.1851e-005	
-0.17287315	-1.7137e-005	
-0.17261981	-4.883e-005	
-0.17230313	-1.404e-005	
-0.17173837	4.233e-006	
-0.17139002	-1.0943e-005	
-0.17108812	4.9553e-005	
-0.17075877	1.6311e-005	
-0.17041675	6.9993e-005	
-0.17004095	2.1886e-005	
-0.16952054	4.4804e-005	
-0.16888295	9.3118e-005	
-0.16827703	4.4907e-005	
-0.16765739	0.000113661	
-0.16731326	5.8224e-005	
-0.16692269	0.000111803	
-0.16641705	5.905e-005	
-0.16600959	7.4432e-005	
-0.16557045	8.744e-005	
-0.16509332	0.000128011	
-0.16468691	6.9993e-005	
-0.164233	7.0716e-005	
-0.16386142	0.000134928	
-0.16352996	6.8032e-005	
-0.16301588	6.4212e-005	
-0.16255985	0.000121094	
-0.16212494	5.6469e-005	
-0.16166047	0.000112629	
-0.16133746	4.1707e-005	
-0.16117173	9.9002e-005	
-0.16096272	0.000105506	
-0.16066715	3.8919e-005	
-0.16055736	9.9518e-005	
-0.16037157	8.6511e-005	
-0.16011823	9.3324e-005	
-0.15989022	6.8135e-005	
-0.1597741	0.00012894	
-0.15955348	0.000125637	
-0.15930857	6.2251e-005	
-0.15902145	0.000123469	
-0.15860765	7.2574e-005	
-0.15825719	5.6573e-005	
-0.15788667	9.797e-005	
-0.15765021	5.5024e-005	
-0.15726597	0.000107571	
-0.1568015	0.000103648	
-0.15616179	0.000106951	
-0.1553458	6.9064e-005	
-0.15456465	2.9215e-005	
-0.15368111	3.5822e-005	
-0.15278595	7.0406e-005	
-0.15192774	1.2182e-005	
-0.15116981	1.1975e-005	
-0.15065784	6.287e-005	
-0.15019759	-2.891e-006	
-0.14975002	5.4301e-005	
-0.14936788	1.8066e-005	
-0.14917576	5.4611e-005	
-0.14887491	3.2829e-005	
-0.14834817	1.755e-006	
-0.14800826	4.6146e-005	
-0.14772747	-1.084e-005	
-0.14737173	4.3978e-005	
-0.14670775	4.2946e-005	
-0.14607227	3.6855e-005	
-0.14567008	3.6442e-005	
-0.14540301	3.0764e-005	
-0.14496071	3.7577e-005	
-0.1444498	3.1074e-005	
-0.14407189	1.5485e-005	
-0.14348391	4.0881e-005	
-0.14305534	-2.3434e-005	
-0.14258665	-2.6738e-005	
-0.1422953	-2.4673e-005	
-0.14201134	-1.755e-005	
-0.14167988	7.536e-006	
-0.14128508	-2.7357e-005	
-0.14064749	1.136e-006	
-0.13984839	-9.085e-006	
-0.13923192	-1.3317e-005	
-0.13864077	-3.51e-006	
-0.13813303	5.8534e-005	
-0.13770023	3.6235e-005	
-0.1372252	6.6999e-005	
-0.13667945	6.8754e-005	
-0.13600597	2.0957e-005	
-0.1354581	7.8252e-005	
-0.13448061	9.4976e-005	
-0.13328038	4.0984e-005	
-0.13221632	0.000103131	
-0.13126522	7.5774e-005	
-0.13048195	0.000119133	
-0.1296533	0.000125946	
-0.12921417	0.000114074	
-0.12898615	0.000165692	
-0.12891648	0.000162078	
-0.12882781	0.000100241	
-0.12851324	9.5905e-005	
-0.1279791	0.000109222	
-0.12729401	0.0001851	
-0.12663953	0.000141844	
-0.12582671	0.000210908	
-0.12516061	0.000213902	
-0.12443963	0.000233001	
-0.12381893	0.000172195	
-0.12326157	0.000248176	
-0.12293011	0.000228871	
-0.12261026	0.000253751	
-0.12212468	0.0001915	
-0.1216011	0.000194597	
-0.12084106	0.000201721	
-0.12016441	0.000279663	
-0.11964505	0.000238575	
-0.11908663	0.000282347	
-0.11858838	0.000227426	
-0.11797402	0.000291844	
-0.11703136	0.000232897	
-0.11623121	0.000264384	
-0.11551656	0.000304026	
-0.11443774	0.000304336	
-0.11338952	0.0002968	
-0.1125767	0.000252615	
-0.1120605	0.000292464	
-0.11149258	0.000229284	
-0.11102389	0.000254164	
-0.11061643	0.000279663	
-0.11020157	0.00021287	
-0.10970966	0.000264797	
-0.10926208	0.000195939	
-0.10860021	0.000183345	
-0.10736937	0.000225671	
-0.10596435	0.000156091	
-0.1046649	0.000173538	
-0.10383939	0.000117481	
-0.10305718	9.2189e-005	
-0.10199313	9.8692e-005	
-0.1008689	5.1617e-005	
-0.09980485	1.8892e-005	
-0.09902264	-3.716e-006	
-0.09839983	8.052e-006	
-0.09756273	-4.6559e-005	
-0.09668235	-4.1913e-005	
-0.09586003	-9.415e-005	
-0.09518233	-0.000118617	
-0.09437268	-0.000117894	
-0.0932643	-0.000158156	
-0.09239342	-0.000187061	
-0.09156793	-0.000216277	
-0.09080262	-0.000236098	
-0.09005102	-0.0002585	
-0.08919281	-0.000275637	
-0.08837577	-0.00028916	
-0.08759989	-0.000302168	
-0.08680608	-0.000321886	
-0.08610937	-0.000340262	
-0.08519627	-0.000355334	
-0.08392109	-0.00038775	
-0.08246539	-0.000423778	
-0.08130738	-0.000436476	
-0.0805579	-0.000465176	
-0.08013882	-0.00047488	
-0.07978625	-0.000484067	
-0.07902832	-0.000498417	
-0.07833056	-0.000491191	
-0.07713456	-0.000511631	
-0.07607261	-0.000515657	
-0.07508351	-0.000543015	
-0.07441003	-0.000535065	
-0.07396456	-0.000531039	
-0.07346631	-0.000559016	
-0.0729839	-0.000559429	
-0.07246876	-0.000563352	
-0.07208241	-0.000555609	
-0.07183645	-0.000548176	
-0.07151977	-0.000561597	
-0.07109858	-0.000543221	
-0.07039976	-0.000544563	
-0.06948772	-0.000567275	
-0.0683751	-0.000570165	
-0.06726988	-0.000548383	
-0.06592187	-0.00056552	
-0.06459496	-0.000541982	
-0.06341796	-0.000532485	
-0.0624088	-0.000553648	
-0.06161074	-0.000531555	
-0.06092143	-0.000557364	
-0.06014239	-0.000515348	
-0.05945941	-0.000536407	
-0.05879438	-0.000515864	
-0.05820112	-0.000535065	
-0.05754348	-0.000506469	
-0.05694917	-0.000527633	
-0.05640342	-0.000494184	
-0.05570355	-0.000524948	
-0.05495934	-0.000490468	
-0.05434181	-0.000510496	
-0.05362294	-0.000481074	
-0.05306136	-0.000511425	
-0.0524491	-0.000486545	
-0.05191391	-0.000496765	
-0.05148111	-0.000502547	
-0.0509153	-0.000468479	
-0.05041178	-0.000482313	
-0.04985441	-0.000458569	
-0.04940472	-0.000464866	
-0.04934139	-0.00044298	
-0.04930972	-0.000463214	
-0.04929494	-0.000430798	
-0.04928438	-0.000461872	
-0.04928016	-0.000441328	
-0.04926749	-0.000450723	
-0.04925905	-0.000425637	
-0.04925061	-0.000459085	
-0.04924216	-0.000430385	
-0.04924005	-0.000455471	
-0.04923583	-0.000426256	
-0.0492316	-0.000456917	
-0.04922738	-0.000424295	
-0.04922316	-0.00045382	
-0.04922316	-0.000423469	
-0.04922105	-0.000456504	
-0.04922105	-0.000430798	
-0.04921894	-0.000452168	
-0.04921471	-0.00042543	
-0.04922949	-0.00051287	
-0.04924005	-0.000458672	
-0.04923794	-0.000476325	
-0.04923899	-0.000476015	
-0.04923583	-0.000512457	
-0.04923583	-0.000491294	
-0.04923794	-0.000516896	
-0.04923794	-0.000517309	
-0.04923794	-0.000494184	
-0.04923899	-0.000520303	
-0.04923794	-0.000479009	
-0.04923794	-0.00051669	
-0.04923794	-0.000472299	
-0.04923794	-0.000482725	
-0.04923794	-0.000505747	
-0.04923794	-0.000513489	
-0.04923794	-0.000478699	
-0.04923794	-0.000513076	
-0.04923794	-0.000483242	
-0.04924005	-0.000518238	
-0.04924005	-0.000486752	
-0.04924005	-0.000514315	
-0.04924005	-0.000478906	
-0.04924005	-0.000481177	
-0.04923583	-0.000507502	
-0.04924005	-0.000485926	
-0.04923794	-0.000515141	
-0.04923688	-0.000489229	
-0.04924005	-0.000479732	
-0.04923794	-0.00051669	
-0.04923477	-0.00048799	
-0.04923794	-0.000520716	
-0.04923583	-0.00050585	
-0.04923794	-0.000503682	
-0.04923794	-0.000543634	
-0.04923794	-0.000463627	
-0.04923583	-0.000492223	
-0.04923372	-0.00046373	
-0.04923794	-0.000506056	
-0.04923583	-0.000476428	
-0.04923583	-0.000502959	
-0.04923583	-0.000476118	
-0.04923583	-0.000503785	
-0.04923794	-0.000480145	
-0.04923583	-0.000513076	
-0.04923583	-0.000484171	
-0.04923583	-0.000496869	
-0.04923899	-0.000464659	
-0.04923794	-0.000517103	
-0.04923583	-0.000476325	
-0.04923794	-0.000500792	
-0.04923583	-0.000476222	
-0.04924005	-0.000505127	
-0.04924005	-0.000479215	
-0.04923794	-0.000481383	
-0.04923583	-0.000490262	
-0.04923583	-0.000515657	
-0.04923794	-0.000519683	
-0.04923583	-0.000477254	
-0.04923583	-0.000499037	
-0.04923688	-0.000536201	
-0.04923794	-0.000503166	
-0.04923794	-0.000478286	
-0.04924005	-0.000492946	
-0.04923794	-0.000502443	
-0.04923794	-0.000502547	
-0.04923583	-0.000475705	
-0.04923794	-0.0004819	
-0.04924005	-0.000496869	
-0.04924005	-0.00050234	
-0.04924216	-0.00048128	
-0.04924005	-0.000481383	
-0.04924005	-0.000499243	
-0.04924005	-0.000475602	
-0.04924005	-0.00049212	
-0.04924005	-0.000511734	
-0.04923794	-0.000509979	
-0.04923794	-0.000492636	
-0.04923794	-0.000479319	
-0.04923583	-0.000482622	
-0.04924005	-0.000525568	
-0.04923794	-0.000532381	
-0.04923794	-0.000503063	
-0.04924005	-0.000526084	
-0.04923794	-0.00048861	
-0.04923794	-0.000524019	
-0.04923794	-0.000508844	
-0.04923583	-0.000502134	
-0.04923583	-0.000498211	
-0.04923583	-0.00051256	
-0.04923794	-0.000521129	
-0.04923266	-0.000503063	
-0.04923583	-0.000507502	
-0.04923372	-0.000530523	
-0.04923583	-0.000497488	
-0.04923583	-0.000507915	
-0.04923477	-0.000509154	
-0.04923583	-0.000532691	
-0.04923583	-0.000515554	
-0.04923583	-0.000519374	
-0.04923372	-0.000506263	
-0.04923794	-0.00050585	
-0.04923583	-0.000528562	
-0.04923583	-0.000536614	
-0.04923583	-0.000533207	
-0.04923794	-0.000511631	
-0.04923794	-0.000500482	
-0.04923794	-0.000518858	
-0.04923583	-0.000525671	
-0.04923477	-0.000503579	
-0.04923583	-0.000539195	
-0.04923794	-0.000510805	
-0.04923794	-0.000541363	
-0.04923794	-0.000494804	
-0.04923583	-0.000497282	
-0.04924005	-0.000517103	
-0.04923794	-0.000490881	
-0.04923794	-0.000545286	
-0.04923583	-0.000514522	
-0.04923794	-0.000553957	
-0.04923477	-0.000525671	
-0.04923794	-0.000547041	
-0.04923794	-0.000512251	
-0.04923372	-0.000504198	
-0.04923583	-0.000486235	
-0.04923583	-0.000506469	
-0.04923583	-0.000513593	
-0.04923266	-0.000500998	
-0.04923372	-0.000486958	
-0.0492316	-0.000503269	
-0.04923372	-0.000477564	
-0.04923583	-0.000486545	
-0.04923794	-0.000472608	
-0.04923372	-0.000513489	
-0.04923372	-0.000488713	
-0.04923583	-0.000511631	
-0.04923372	-0.000506573	
-0.04923583	-0.000480454	
-0.04923583	-0.000512044	
-0.04923583	-0.000479319	
-0.04923583	-0.00051318	
-0.04923583	-0.000514625	
-0.04923372	-0.000499346	
-0.04923583	-0.000501721	
-0.04923794	-0.000509876	
-0.04923583	-0.00047839	
-0.04923583	-0.000505644	
-0.04923583	-0.000477977	
-0.04923794	-0.000517722	
-0.04923794	-0.00047777	
-0.04923794	-0.000512457	
-0.04923583	-0.000479112	
-0.04923583	-0.000509773	
-0.04924005	-0.000509979	
-0.04923583	-0.00053744	
-0.04923583	-0.000490571	
-0.04923794	-0.000527633	
-0.04923583	-0.000549622	
-0.04923899	-0.000491604	
