# Spalte1: Wellenlänge [nm]
# Spalte2: Intensität
417	0.002188
418	0.001922
419	0.001578
420	0.001085
421	0.000589
422	0.000151
423	0.000000
424	0.000000
425	0.000000
426	0.000000
427	0.000000
428	0.000000
429	0.000073
430	0.000153
431	0.000186
432	0.000177
433	0.000140
434	0.000088
435	0.000036
436	0.000001
437	0.000000
438	0.000000
439	0.000000
440	0.000000
441	0.000000
442	0.000008
443	0.000023
444	0.000032
445	0.000038
446	0.000039
447	0.000037
448	0.000034
449	0.000029
450	0.000025
451	0.000020
452	0.000017
453	0.000014
454	0.000012
455	0.000011
456	0.000011
457	0.000011
458	0.000011
459	0.000011
460	0.000010
461	0.000009
462	0.000007
463	0.000004
464	0.000000
465	0.000000
466	0.000000
467	0.000000
468	0.000000
469	0.000000
470	0.000000
471	0.000001
472	0.000011
473	0.000024
474	0.000038
475	0.000052
476	0.000063
477	0.000070
478	0.000071
479	0.000066
480	0.000054
481	0.000039
482	0.000022
483	0.000007
484	0.000000
485	0.000000
486	0.000000
487	0.000000
488	0.000005
489	0.000022
490	0.000045
491	0.000075
492	0.000111
493	0.000148
494	0.000184
495	0.000210
496	0.000220
497	0.000210
498	0.000178
499	0.000126
500	0.000060
501	0.000000
502	0.000000
503	0.000000
504	0.000000
505	0.000000
506	0.000000
507	0.000000
508	0.000000
509	0.000000
510	0.000000
511	0.000000
512	0.000000
513	0.000000
514	0.000000
515	0.000000
516	0.000000
517	0.000001
518	0.000039
519	0.000078
520	0.000102
521	0.000110
522	0.000104
523	0.000088
524	0.000069
525	0.000050
526	0.000034
527	0.000022
528	0.000014
529	0.000009
530	0.000009
531	0.000014
532	0.000026
533	0.000044
534	0.000067
535	0.000091
536	0.000112
537	0.000123
538	0.000121
539	0.000104
540	0.000074
541	0.000035
542	0.000000
543	0.000000
544	0.000000
545	0.000000
546	0.000000
547	0.000000
548	0.000013
549	0.000055
550	0.000091
551	0.000114
552	0.000121
553	0.000114
554	0.000095
555	0.000071
556	0.000048
557	0.000031
558	0.000021
559	0.000019
560	0.000024
561	0.000033
562	0.000045
563	0.000054
564	0.000058
565	0.000055
566	0.000044
567	0.000027
568	0.000008
569	0.000000
570	0.000000
571	0.000000
572	0.000000
573	0.000000
574	0.000003
575	0.000023
576	0.000040
577	0.000051
578	0.000055
579	0.000052
580	0.000045
581	0.000037
582	0.000031
583	0.000028
584	0.000028
585	0.000030
586	0.000032
587	0.000031
588	0.000026
589	0.000018
590	0.000008
591	0.000000
592	0.000000
593	0.000000
594	0.000000
595	0.000000
596	0.000000
597	0.000000
598	0.000000
599	0.000014
600	0.000038
601	0.000062
602	0.000082
603	0.000093
604	0.000094
605	0.000086
606	0.000073
607	0.000062
608	0.000059
609	0.000069
610	0.000089
611	0.000113
612	0.000131
613	0.000131
614	0.000103
615	0.000045
616	0.000000
617	0.000000
618	0.000000
619	0.000000
620	0.000000
621	0.000000
622	0.000038
623	0.000181
624	0.000305
625	0.000385
626	0.000405
627	0.000367
628	0.000290
629	0.000195
630	0.000108
631	0.000041
632	0.000000
633	0.000000
634	0.000000
635	0.000000
636	0.000000
637	0.000000
638	0.000000
639	0.000000
640	0.000000
641	0.000000
642	0.000000
643	0.000000
644	0.000000
645	0.000000
646	0.000000
647	0.000000
648	0.000000
649	0.000000
650	0.000000
651	0.000000
652	0.000000
653	0.000000
654	0.000000
655	0.000000
656	0.000000
657	0.000000
658	0.000000
659	0.000000
660	0.000000
661	0.000000
662	0.001971
663	0.005147
664	0.008059
665	0.009501
666	0.008683
667	0.005265
668	0.000046
669	0.000000
670	0.000000
