# Spalte1: Wellenlänge [nm]
# Spalte2: Intensität
417	0.003631
418	0.002389
419	0.001322
420	0.000417
421	0.000000
422	0.000000
423	0.000000
424	0.000000
425	0.000000
426	0.000000
427	0.000000
428	0.000000
429	0.000077
430	0.000160
431	0.000199
432	0.000203
433	0.000185
434	0.000154
435	0.000118
436	0.000084
437	0.000055
438	0.000032
439	0.000017
440	0.000007
441	0.000002
442	0.000001
443	0.000003
444	0.000006
445	0.000010
446	0.000014
447	0.000017
448	0.000019
449	0.000020
450	0.000021
451	0.000020
452	0.000020
453	0.000020
454	0.000020
455	0.000022
456	0.000026
457	0.000031
458	0.000036
459	0.000041
460	0.000044
461	0.000043
462	0.000038
463	0.000029
464	0.000019
465	0.000010
466	0.000007
467	0.000012
468	0.000029
469	0.000056
470	0.000093
471	0.000132
472	0.000166
473	0.000185
474	0.000181
475	0.000152
476	0.000098
477	0.000030
478	0.000000
479	0.000000
480	0.000000
481	0.000000
482	0.000000
483	0.000019
484	0.000098
485	0.000160
486	0.000185
487	0.000163
488	0.000097
489	0.000007
490	0.000000
491	0.000000
492	0.000000
493	0.000000
494	0.000000
495	0.000000
496	0.000000
497	0.000087
498	0.000180
499	0.000251
500	0.000294
501	0.000306
502	0.000290
503	0.000253
504	0.000206
505	0.000158
506	0.000120
507	0.000095
508	0.000085
509	0.000086
510	0.000090
511	0.000090
512	0.000081
513	0.000061
514	0.000034
515	0.000005
516	0.000000
517	0.000000
518	0.000000
519	0.000001
520	0.000026
521	0.000057
522	0.000084
523	0.000099
524	0.000101
525	0.000091
526	0.000076
527	0.000061
528	0.000054
529	0.000059
530	0.000079
531	0.000108
532	0.000139
533	0.000166
534	0.000180
535	0.000177
536	0.000160
537	0.000131
538	0.000097
539	0.000064
540	0.000036
541	0.000017
542	0.000007
543	0.000004
544	0.000007
545	0.000014
546	0.000024
547	0.000036
548	0.000049
549	0.000061
550	0.000069
551	0.000073
552	0.000071
553	0.000064
554	0.000053
555	0.000043
556	0.000039
557	0.000044
558	0.000063
559	0.000095
560	0.000136
561	0.000182
562	0.000225
563	0.000255
564	0.000263
565	0.000246
566	0.000209
567	0.000160
568	0.000109
569	0.000063
570	0.000027
571	0.000003
572	0.000000
573	0.000000
574	0.000000
575	0.000010
576	0.000026
577	0.000040
578	0.000049
579	0.000050
580	0.000041
581	0.000025
582	0.000006
583	0.000000
584	0.000000
585	0.000000
586	0.000000
587	0.000010
588	0.000036
589	0.000060
590	0.000079
591	0.000091
592	0.000102
593	0.000122
594	0.000162
595	0.000228
596	0.000319
597	0.000421
598	0.000512
599	0.000565
600	0.000559
601	0.000488
602	0.000361
603	0.000204
604	0.000053
605	0.000000
606	0.000000
607	0.000000
608	0.000000
609	0.000000
610	0.000000
611	0.000000
612	0.000000
613	0.000000
614	0.000000
615	0.000000
616	0.000000
617	0.000000
618	0.000000
619	0.000000
620	0.000000
621	0.000000
622	0.000000
623	0.000000
624	0.000000
625	0.000000
626	0.000000
627	0.000000
628	0.000029
629	0.000065
630	0.000082
631	0.000078
632	0.000063
633	0.000053
634	0.000065
635	0.000110
636	0.000187
637	0.000279
638	0.000364
639	0.000415
640	0.000407
641	0.000340
642	0.000229
643	0.000105
644	0.000007
645	0.000000
646	0.000001
647	0.000079
648	0.000164
649	0.000204
650	0.000176
651	0.000088
652	0.000001
653	0.000000
654	0.000004
655	0.000130
656	0.000275
657	0.000355
658	0.000308
659	0.000147
660	0.000000
661	0.000000
662	0.000000
663	0.000057
664	0.000434
665	0.000823
666	0.001084
667	0.001122
668	0.000890
669	0.000503
670	0.000110
