# Spalte1: Wellenlänge [nm]
# Spalte2: Intensität
417	1.813079
418	1.800057
419	1.833595
420	1.803232
421	1.792307
422	1.771108
423	1.745498
424	1.724454
425	1.679138
426	1.629283
427	1.578028
428	1.516854
429	1.453056
430	1.388761
431	1.314243
432	1.238948
433	1.164050
434	1.083996
435	1.001090
436	0.920490
437	0.843293
438	0.768432
439	0.695728
440	0.627231
441	0.565047
442	0.507781
443	0.456708
444	0.413111
445	0.375250
446	0.342949
447	0.316300
448	0.294546
449	0.276971
450	0.263304
451	0.253062
452	0.245258
453	0.239945
454	0.236252
455	0.234357
456	0.233262
457	0.232112
458	0.230991
459	0.229394
460	0.227180
461	0.225053
462	0.222523
463	0.220250
464	0.218064
465	0.216126
466	0.214246
467	0.212559
468	0.210563
469	0.207782
470	0.204343
471	0.199731
472	0.194388
473	0.188666
474	0.182986
475	0.177343
476	0.172775
477	0.169330
478	0.166723
479	0.164272
480	0.161749
481	0.158568
482	0.154196
483	0.148307
484	0.141182
485	0.133147
486	0.125249
487	0.118101
488	0.112141
489	0.107516
490	0.104347
491	0.102053
492	0.100383
493	0.098621
494	0.096482
495	0.093653
496	0.090272
497	0.086209
498	0.081718
499	0.077084
500	0.072652
501	0.068452
502	0.064530
503	0.060923
504	0.057565
505	0.054113
506	0.051040
507	0.048017
508	0.045024
509	0.041887
510	0.038950
511	0.036013
512	0.033073
513	0.030240
514	0.027530
515	0.025003
516	0.022628
517	0.020466
518	0.018530
519	0.016725
520	0.015130
521	0.013673
522	0.012319
523	0.011022
524	0.009785
525	0.008607
526	0.007489
527	0.006437
528	0.005483
529	0.004634
530	0.003900
531	0.003288
532	0.002782
533	0.002368
534	0.002042
535	0.001776
536	0.001561
537	0.001382
538	0.001227
539	0.001092
540	0.000971
541	0.000866
542	0.000776
543	0.000696
544	0.000628
545	0.000567
546	0.000516
547	0.000471
548	0.000435
549	0.000406
550	0.000384
551	0.000367
552	0.000353
553	0.000340
554	0.000322
555	0.000299
556	0.000268
557	0.000232
558	0.000195
559	0.000161
560	0.000139
561	0.000134
562	0.000149
563	0.000183
564	0.000228
565	0.000273
566	0.000307
567	0.000325
568	0.000323
569	0.000306
570	0.000283
571	0.000262
572	0.000245
573	0.000238
574	0.000244
575	0.000262
576	0.000289
577	0.000320
578	0.000347
579	0.000364
580	0.000369
581	0.000360
582	0.000341
583	0.000318
584	0.000297
585	0.000284
586	0.000284
587	0.000297
588	0.000321
589	0.000352
590	0.000383
591	0.000410
592	0.000429
593	0.000443
594	0.000453
595	0.000460
596	0.000469
597	0.000478
598	0.000491
599	0.000503
600	0.000514
601	0.000524
602	0.000533
603	0.000542
604	0.000557
605	0.000580
606	0.000614
607	0.000657
608	0.000706
609	0.000749
610	0.000779
611	0.000790
612	0.000781
613	0.000762
614	0.000741
615	0.000733
616	0.000746
617	0.000782
618	0.000838
619	0.000911
620	0.000991
621	0.001072
622	0.001147
623	0.001206
624	0.001236
625	0.001234
626	0.001207
627	0.001171
628	0.001156
629	0.001184
630	0.001274
631	0.001432
632	0.001622
633	0.001803
634	0.001922
635	0.001942
636	0.001848
637	0.001669
638	0.001477
639	0.001342
640	0.001332
641	0.001481
642	0.001776
643	0.002156
644	0.002525
645	0.002806
646	0.002975
647	0.003009
648	0.002975
649	0.002913
650	0.002910
651	0.002971
652	0.003119
653	0.003339
654	0.003601
655	0.003827
656	0.004000
657	0.004071
658	0.003973
659	0.003765
660	0.003475
661	0.003228
662	0.003229
663	0.003572
664	0.004362
665	0.005442
666	0.006651
667	0.007744
668	0.008231
669	0.008170
670	0.007589
