# Spalte1: Wellenlänge [nm]
# Spalte2: Intensität
417	0.043513
418	0.042164
419	0.042556
420	0.042047
421	0.042441
422	0.042873
423	0.043299
424	0.043771
425	0.043420
426	0.042655
427	0.041522
428	0.039808
429	0.037771
430	0.035551
431	0.032992
432	0.030427
433	0.027954
434	0.025484
435	0.023097
436	0.020915
437	0.018946
438	0.017136
439	0.015454
440	0.013916
441	0.012545
442	0.011293
443	0.010175
444	0.009215
445	0.008372
446	0.007643
447	0.007030
448	0.006520
449	0.006099
450	0.005762
451	0.005501
452	0.005295
453	0.005148
454	0.005042
455	0.004983
456	0.004953
457	0.004934
458	0.004931
459	0.004930
460	0.004927
461	0.004931
462	0.004924
463	0.004917
464	0.004900
465	0.004875
466	0.004841
467	0.004803
468	0.004757
469	0.004695
470	0.004623
471	0.004531
472	0.004426
473	0.004315
474	0.004206
475	0.004100
476	0.004024
477	0.003984
478	0.003977
479	0.003990
480	0.004014
481	0.004035
482	0.004035
483	0.003999
484	0.003928
485	0.003824
486	0.003707
487	0.003588
488	0.003472
489	0.003360
490	0.003259
491	0.003159
492	0.003061
493	0.002956
494	0.002841
495	0.002712
496	0.002573
497	0.002420
498	0.002255
499	0.002084
500	0.001913
501	0.001740
502	0.001565
503	0.001390
504	0.001216
505	0.001042
506	0.000884
507	0.000742
508	0.000623
509	0.000526
510	0.000455
511	0.000404
512	0.000367
513	0.000339
514	0.000315
515	0.000293
516	0.000270
517	0.000248
518	0.000230
519	0.000216
520	0.000210
521	0.000209
522	0.000213
523	0.000219
524	0.000224
525	0.000226
526	0.000221
527	0.000209
528	0.000192
529	0.000172
530	0.000154
531	0.000142
532	0.000139
533	0.000145
534	0.000158
535	0.000173
536	0.000186
537	0.000192
538	0.000189
539	0.000176
540	0.000155
541	0.000128
542	0.000098
543	0.000069
544	0.000042
545	0.000023
546	0.000014
547	0.000017
548	0.000031
549	0.000055
550	0.000083
551	0.000110
552	0.000131
553	0.000145
554	0.000148
555	0.000144
556	0.000135
557	0.000125
558	0.000117
559	0.000112
560	0.000110
561	0.000109
562	0.000109
563	0.000107
564	0.000103
565	0.000098
566	0.000095
567	0.000093
568	0.000095
569	0.000097
570	0.000100
571	0.000103
572	0.000104
573	0.000104
574	0.000103
575	0.000104
576	0.000106
577	0.000108
578	0.000110
579	0.000110
580	0.000110
581	0.000110
582	0.000113
583	0.000122
584	0.000137
585	0.000155
586	0.000171
587	0.000178
588	0.000170
589	0.000148
590	0.000113
591	0.000073
592	0.000038
593	0.000018
594	0.000018
595	0.000038
596	0.000074
597	0.000114
598	0.000150
599	0.000174
600	0.000186
601	0.000192
602	0.000202
603	0.000224
604	0.000261
605	0.000308
606	0.000351
607	0.000373
608	0.000363
609	0.000313
610	0.000231
611	0.000135
612	0.000047
613	0.000000
614	0.000000
615	0.000012
616	0.000081
617	0.000167
618	0.000244
619	0.000286
620	0.000274
621	0.000199
622	0.000072
623	0.000000
624	0.000000
625	0.000000
626	0.000000
627	0.000171
628	0.000482
629	0.000722
630	0.000729
631	0.000364
632	0.000000
633	0.000000
634	0.000000
635	0.000000
636	0.000000
637	0.000000
638	0.000000
639	0.000000
640	0.000000
641	0.000000
642	0.000000
643	0.000000
644	0.000000
645	0.000000
646	0.000000
647	0.000305
648	0.000728
649	0.001108
650	0.001397
651	0.001546
652	0.001574
653	0.001553
654	0.001575
655	0.001692
656	0.001911
657	0.002155
658	0.002280
659	0.002224
660	0.001974
661	0.001668
662	0.001566
663	0.001874
664	0.002720
665	0.003890
666	0.004976
667	0.005420
668	0.004594
669	0.002645
670	0.000249
