# Spalte1: Wellenlänge [nm]
# Spalte2: Intensität
417	0.103276
418	0.101350
419	0.101891
420	0.098639
421	0.096318
422	0.093543
423	0.090981
424	0.089464
425	0.087736
426	0.086914
427	0.087088
428	0.087571
429	0.088390
430	0.089335
431	0.089461
432	0.089116
433	0.088281
434	0.086499
435	0.083940
436	0.081068
437	0.078052
438	0.074852
439	0.071454
440	0.068054
441	0.064870
442	0.061764
443	0.058912
444	0.056538
445	0.054488
446	0.052814
447	0.051634
448	0.050928
449	0.050669
450	0.050896
451	0.051608
452	0.052682
453	0.054195
454	0.056009
455	0.058207
456	0.060575
457	0.062884
458	0.065116
459	0.067067
460	0.068603
461	0.069852
462	0.070601
463	0.071026
464	0.071094
465	0.070917
466	0.070545
467	0.070143
468	0.069651
469	0.068984
470	0.068208
471	0.067114
472	0.065770
473	0.064186
474	0.062409
475	0.060372
476	0.058419
477	0.056626
478	0.054996
479	0.053408
480	0.051872
481	0.050236
482	0.048322
483	0.045983
484	0.043251
485	0.040181
486	0.037072
487	0.034120
488	0.031496
489	0.029308
490	0.027644
491	0.026381
492	0.025451
493	0.024640
494	0.023825
495	0.022872
496	0.021767
497	0.020445
498	0.018957
499	0.017377
500	0.015807
501	0.014286
502	0.012862
503	0.011575
504	0.010432
505	0.009378
506	0.008487
507	0.007680
508	0.006929
509	0.006185
510	0.005486
511	0.004802
512	0.004142
513	0.003534
514	0.002997
515	0.002546
516	0.002180
517	0.001896
518	0.001682
519	0.001511
520	0.001372
521	0.001247
522	0.001124
523	0.000998
524	0.000871
525	0.000748
526	0.000634
527	0.000532
528	0.000446
529	0.000376
530	0.000318
531	0.000270
532	0.000230
533	0.000197
534	0.000171
535	0.000154
536	0.000145
537	0.000145
538	0.000151
539	0.000157
540	0.000160
541	0.000158
542	0.000148
543	0.000133
544	0.000116
545	0.000099
546	0.000087
547	0.000080
548	0.000079
549	0.000081
550	0.000084
551	0.000087
552	0.000088
553	0.000087
554	0.000085
555	0.000084
556	0.000083
557	0.000085
558	0.000088
559	0.000090
560	0.000091
561	0.000091
562	0.000089
563	0.000084
564	0.000078
565	0.000070
566	0.000063
567	0.000057
568	0.000052
569	0.000050
570	0.000050
571	0.000052
572	0.000055
573	0.000059
574	0.000061
575	0.000063
576	0.000062
577	0.000060
578	0.000058
579	0.000058
580	0.000059
581	0.000064
582	0.000071
583	0.000081
584	0.000093
585	0.000105
586	0.000119
587	0.000133
588	0.000149
589	0.000164
590	0.000176
591	0.000183
592	0.000180
593	0.000166
594	0.000143
595	0.000113
596	0.000083
597	0.000057
598	0.000043
599	0.000040
600	0.000050
601	0.000070
602	0.000094
603	0.000119
604	0.000140
605	0.000154
606	0.000162
607	0.000162
608	0.000158
609	0.000148
610	0.000138
611	0.000132
612	0.000134
613	0.000147
614	0.000169
615	0.000198
616	0.000225
617	0.000246
618	0.000254
619	0.000252
620	0.000242
621	0.000229
622	0.000217
623	0.000205
624	0.000194
625	0.000183
626	0.000172
627	0.000163
628	0.000159
629	0.000161
630	0.000171
631	0.000189
632	0.000213
633	0.000241
634	0.000269
635	0.000293
636	0.000308
637	0.000315
638	0.000319
639	0.000326
640	0.000347
641	0.000394
642	0.000468
643	0.000561
644	0.000648
645	0.000703
646	0.000706
647	0.000640
648	0.000527
649	0.000402
650	0.000324
651	0.000335
652	0.000452
653	0.000647
654	0.000858
655	0.001001
656	0.001034
657	0.000949
658	0.000782
659	0.000615
660	0.000506
661	0.000487
662	0.000555
663	0.000674
664	0.000816
665	0.000941
666	0.001048
667	0.001146
668	0.001219
669	0.001322
670	0.001464
