# Spalte1: Wellenlänge [nm]
# Spalte2: Intensität
417	0.463349
418	0.463577
419	0.468659
420	0.452081
421	0.437720
422	0.420590
423	0.404153
424	0.391671
425	0.376901
426	0.364082
427	0.353207
428	0.341479
429	0.329613
430	0.317439
431	0.302332
432	0.286283
433	0.269646
434	0.251325
435	0.232085
436	0.213336
437	0.195491
438	0.178379
439	0.161962
440	0.146672
441	0.132930
442	0.120330
443	0.109111
444	0.099542
445	0.091191
446	0.084011
447	0.078044
448	0.073132
449	0.069126
450	0.065992
451	0.063644
452	0.061867
453	0.060699
454	0.059943
455	0.059661
456	0.059612
457	0.059582
458	0.059594
459	0.059511
460	0.059281
461	0.059063
462	0.058698
463	0.058328
464	0.057879
465	0.057375
466	0.056770
467	0.056120
468	0.055325
469	0.054298
470	0.053111
471	0.051663
472	0.050093
473	0.048508
474	0.047021
475	0.045627
476	0.044580
477	0.043871
478	0.043402
479	0.042977
480	0.042527
481	0.041902
482	0.040975
483	0.039677
484	0.038094
485	0.036308
486	0.034582
487	0.033045
488	0.031764
489	0.030730
490	0.029947
491	0.029245
492	0.028574
493	0.027773
494	0.026810
495	0.025643
496	0.024346
497	0.022902
498	0.021388
499	0.019878
500	0.018450
501	0.017101
502	0.015829
503	0.014636
504	0.013502
505	0.012352
506	0.011303
507	0.010290
508	0.009316
509	0.008354
510	0.007480
511	0.006652
512	0.005874
513	0.005163
514	0.004524
515	0.003964
516	0.003478
517	0.003071
518	0.002740
519	0.002459
520	0.002229
521	0.002028
522	0.001839
523	0.001649
524	0.001454
525	0.001257
526	0.001062
527	0.000880
528	0.000722
529	0.000595
530	0.000502
531	0.000442
532	0.000407
533	0.000388
534	0.000375
535	0.000360
536	0.000340
537	0.000314
538	0.000285
539	0.000257
540	0.000237
541	0.000228
542	0.000233
543	0.000247
544	0.000266
545	0.000283
546	0.000292
547	0.000288
548	0.000269
549	0.000237
550	0.000197
551	0.000154
552	0.000114
553	0.000080
554	0.000056
555	0.000042
556	0.000036
557	0.000040
558	0.000051
559	0.000069
560	0.000090
561	0.000112
562	0.000130
563	0.000141
564	0.000140
565	0.000128
566	0.000109
567	0.000089
568	0.000074
569	0.000068
570	0.000072
571	0.000085
572	0.000102
573	0.000120
574	0.000131
575	0.000134
576	0.000129
577	0.000116
578	0.000102
579	0.000089
580	0.000084
581	0.000087
582	0.000100
583	0.000118
584	0.000139
585	0.000157
586	0.000169
587	0.000174
588	0.000172
589	0.000166
590	0.000160
591	0.000160
592	0.000167
593	0.000184
594	0.000206
595	0.000229
596	0.000243
597	0.000242
598	0.000225
599	0.000194
600	0.000158
601	0.000128
602	0.000117
603	0.000129
604	0.000162
605	0.000206
606	0.000246
607	0.000269
608	0.000268
609	0.000242
610	0.000203
611	0.000168
612	0.000153
613	0.000169
614	0.000214
615	0.000276
616	0.000338
617	0.000379
618	0.000390
619	0.000374
620	0.000342
621	0.000313
622	0.000302
623	0.000318
624	0.000357
625	0.000404
626	0.000442
627	0.000456
628	0.000444
629	0.000412
630	0.000378
631	0.000363
632	0.000377
633	0.000423
634	0.000488
635	0.000553
636	0.000596
637	0.000610
638	0.000601
639	0.000583
640	0.000572
641	0.000585
642	0.000626
643	0.000684
644	0.000736
645	0.000769
646	0.000784
647	0.000787
648	0.000815
649	0.000896
650	0.001055
651	0.001275
652	0.001525
653	0.001757
654	0.001936
655	0.002026
656	0.002043
657	0.001998
658	0.001890
659	0.001772
660	0.001674
661	0.001652
662	0.001779
663	0.002044
664	0.002431
665	0.002800
666	0.003067
667	0.003149
668	0.002921
669	0.002522
670	0.002074
