# Spalte1: Wellenlänge [nm]
# Spalte2: Intensität
417	1.819774
418	1.807092
419	1.841171
420	1.811096
421	1.800541
422	1.779664
423	1.754355
424	1.733637
425	1.688517
426	1.638826
427	1.587715
428	1.526608
429	1.462835
430	1.398534
431	1.323901
432	1.248444
433	1.173345
434	1.093005
435	1.009744
436	0.928760
437	0.851163
438	0.775876
439	0.702721
440	0.633768
441	0.571148
442	0.513457
443	0.461989
444	0.418051
445	0.379887
446	0.347326
447	0.320468
448	0.298553
449	0.280858
450	0.267114
451	0.256837
452	0.249027
453	0.243741
454	0.240098
455	0.238281
456	0.237276
457	0.236217
458	0.235187
459	0.233674
460	0.231532
461	0.229480
462	0.227014
463	0.224811
464	0.222695
465	0.220829
466	0.219022
467	0.217409
468	0.215479
469	0.212744
470	0.209334
471	0.204721
472	0.199358
473	0.193604
474	0.187889
475	0.182207
476	0.177625
477	0.174189
478	0.171608
479	0.169182
480	0.166674
481	0.163485
482	0.159065
483	0.153078
484	0.145813
485	0.137605
486	0.129533
487	0.122230
488	0.116148
489	0.111437
490	0.108227
491	0.105915
492	0.104245
493	0.102476
494	0.100314
495	0.097435
496	0.093983
497	0.089819
498	0.085206
499	0.080440
500	0.075876
501	0.071547
502	0.067501
503	0.063778
504	0.060309
505	0.056736
506	0.053555
507	0.050423
508	0.047318
509	0.044058
510	0.041004
511	0.037944
512	0.034877
513	0.031918
514	0.029083
515	0.026437
516	0.023947
517	0.021678
518	0.019646
519	0.017748
520	0.016071
521	0.014536
522	0.013108
523	0.011739
524	0.010432
525	0.009185
526	0.008000
527	0.006883
528	0.005869
529	0.004966
530	0.004184
531	0.003531
532	0.002991
533	0.002548
534	0.002199
535	0.001914
536	0.001684
537	0.001493
538	0.001327
539	0.001181
540	0.001052
541	0.000939
542	0.000842
543	0.000757
544	0.000683
545	0.000618
546	0.000562
547	0.000514
548	0.000475
549	0.000444
550	0.000420
551	0.000403
552	0.000388
553	0.000374
554	0.000355
555	0.000330
556	0.000296
557	0.000256
558	0.000215
559	0.000178
560	0.000154
561	0.000148
562	0.000166
563	0.000204
564	0.000255
565	0.000305
566	0.000343
567	0.000363
568	0.000362
569	0.000343
570	0.000318
571	0.000294
572	0.000276
573	0.000269
574	0.000276
575	0.000297
576	0.000328
577	0.000363
578	0.000394
579	0.000415
580	0.000420
581	0.000410
582	0.000389
583	0.000363
584	0.000340
585	0.000326
586	0.000327
587	0.000343
588	0.000371
589	0.000407
590	0.000443
591	0.000475
592	0.000498
593	0.000515
594	0.000527
595	0.000537
596	0.000548
597	0.000560
598	0.000576
599	0.000591
600	0.000605
601	0.000618
602	0.000629
603	0.000641
604	0.000661
605	0.000689
606	0.000731
607	0.000783
608	0.000844
609	0.000897
610	0.000935
611	0.000949
612	0.000940
613	0.000918
614	0.000895
615	0.000888
616	0.000906
617	0.000951
618	0.001021
619	0.001112
620	0.001212
621	0.001315
622	0.001410
623	0.001486
624	0.001525
625	0.001526
626	0.001494
627	0.001452
628	0.001437
629	0.001476
630	0.001593
631	0.001796
632	0.002040
633	0.002272
634	0.002426
635	0.002455
636	0.002339
637	0.002116
638	0.001877
639	0.001712
640	0.001707
641	0.001906
642	0.002291
643	0.002786
644	0.003267
645	0.003636
646	0.003862
647	0.003914
648	0.003881
649	0.003812
650	0.003820
651	0.003912
652	0.004119
653	0.004422
654	0.004782
655	0.005097
656	0.005344
657	0.005455
658	0.005337
659	0.005068
660	0.004687
661	0.004361
662	0.004376
663	0.004860
664	0.005962
665	0.007467
666	0.009155
667	0.010688
668	0.011388
669	0.011333
670	0.010557
