# Spalte1: Wellenlänge [nm]
# Spalte2: Intensität
417	0.003950
418	0.003953
419	0.003884
420	0.003527
421	0.003093
422	0.002571
423	0.002032
424	0.001542
425	0.001118
426	0.000801
427	0.000593
428	0.000475
429	0.000423
430	0.000411
431	0.000411
432	0.000409
433	0.000394
434	0.000359
435	0.000309
436	0.000248
437	0.000185
438	0.000126
439	0.000076
440	0.000040
441	0.000019
442	0.000012
443	0.000015
444	0.000025
445	0.000038
446	0.000050
447	0.000059
448	0.000062
449	0.000060
450	0.000051
451	0.000037
452	0.000019
453	0.000000
454	0.000000
455	0.000000
456	0.000000
457	0.000000
458	0.000000
459	0.000000
460	0.000033
461	0.000069
462	0.000101
463	0.000122
464	0.000128
465	0.000119
466	0.000098
467	0.000071
468	0.000046
469	0.000028
470	0.000021
471	0.000026
472	0.000039
473	0.000056
474	0.000071
475	0.000081
476	0.000082
477	0.000075
478	0.000061
479	0.000042
480	0.000021
481	0.000002
482	0.000000
483	0.000000
484	0.000002
485	0.000038
486	0.000103
487	0.000191
488	0.000291
489	0.000387
490	0.000458
491	0.000487
492	0.000466
493	0.000396
494	0.000287
495	0.000155
496	0.000021
497	0.000000
498	0.000000
499	0.000000
500	0.000000
501	0.000000
502	0.000000
503	0.000000
504	0.000000
505	0.000068
506	0.000127
507	0.000163
508	0.000172
509	0.000158
510	0.000128
511	0.000092
512	0.000061
513	0.000042
514	0.000039
515	0.000052
516	0.000076
517	0.000108
518	0.000139
519	0.000165
520	0.000180
521	0.000183
522	0.000170
523	0.000143
524	0.000105
525	0.000061
526	0.000016
527	0.000000
528	0.000000
529	0.000000
530	0.000000
531	0.000000
532	0.000032
533	0.000076
534	0.000114
535	0.000138
536	0.000147
537	0.000140
538	0.000121
539	0.000096
540	0.000071
541	0.000050
542	0.000036
543	0.000028
544	0.000027
545	0.000029
546	0.000033
547	0.000039
548	0.000046
549	0.000055
550	0.000064
551	0.000071
552	0.000075
553	0.000073
554	0.000063
555	0.000048
556	0.000028
557	0.000010
558	0.000000
559	0.000000
560	0.000000
561	0.000013
562	0.000032
563	0.000049
564	0.000059
565	0.000058
566	0.000048
567	0.000031
568	0.000015
569	0.000003
570	0.000000
571	0.000001
572	0.000012
573	0.000026
574	0.000042
575	0.000056
576	0.000066
577	0.000074
578	0.000081
579	0.000088
580	0.000097
581	0.000108
582	0.000120
583	0.000129
584	0.000132
585	0.000129
586	0.000120
587	0.000105
588	0.000087
589	0.000070
590	0.000057
591	0.000051
592	0.000053
593	0.000065
594	0.000084
595	0.000108
596	0.000130
597	0.000146
598	0.000151
599	0.000141
600	0.000118
601	0.000084
602	0.000043
603	0.000004
604	0.000000
605	0.000000
606	0.000000
607	0.000000
608	0.000042
609	0.000095
610	0.000132
611	0.000136
612	0.000099
613	0.000026
614	0.000000
615	0.000000
616	0.000000
617	0.000000
618	0.000000
619	0.000060
620	0.000171
621	0.000213
622	0.000145
623	0.000001
624	0.000000
625	0.000000
626	0.000000
627	0.000000
628	0.000000
629	0.000000
630	0.000000
631	0.000292
632	0.000521
633	0.000625
634	0.000623
635	0.000562
636	0.000489
637	0.000436
638	0.000413
639	0.000403
640	0.000388
641	0.000354
642	0.000302
643	0.000244
644	0.000190
645	0.000154
646	0.000149
647	0.000182
648	0.000263
649	0.000394
650	0.000563
651	0.000730
652	0.000843
653	0.000851
654	0.000723
655	0.000460
656	0.000120
657	0.000000
658	0.000000
659	0.000000
660	0.000000
661	0.000000
662	0.000000
663	0.000000
664	0.000000
665	0.000082
666	0.000241
667	0.000421
668	0.000549
669	0.000546
670	0.000355
