# Spalte1: Wellenlänge [nm]
# Spalte2: Intensität
417	0.022030
418	0.018519
419	0.015900
420	0.013112
421	0.010854
422	0.008870
423	0.007184
424	0.005812
425	0.004639
426	0.003719
427	0.003035
428	0.002538
429	0.002198
430	0.001977
431	0.001822
432	0.001711
433	0.001617
434	0.001513
435	0.001394
436	0.001264
437	0.001131
438	0.001003
439	0.000888
440	0.000800
441	0.000746
442	0.000729
443	0.000749
444	0.000811
445	0.000914
446	0.001060
447	0.001256
448	0.001510
449	0.001832
450	0.002240
451	0.002753
452	0.003384
453	0.004160
454	0.005098
455	0.006234
456	0.007575
457	0.009112
458	0.010862
459	0.012811
460	0.014961
461	0.017365
462	0.020014
463	0.023011
464	0.026416
465	0.030363
466	0.034962
467	0.040399
468	0.046771
469	0.054143
470	0.062690
471	0.072321
472	0.083075
473	0.094887
474	0.107617
475	0.120785
476	0.134600
477	0.148914
478	0.163588
479	0.178385
480	0.193781
481	0.209998
482	0.227186
483	0.245128
484	0.263856
485	0.282764
486	0.302177
487	0.321494
488	0.339853
489	0.356378
490	0.371415
491	0.384114
492	0.395646
493	0.405704
494	0.415323
495	0.424697
496	0.434947
497	0.445022
498	0.454977
499	0.464808
500	0.475117
501	0.485060
502	0.494286
503	0.502968
504	0.510974
505	0.515721
506	0.522188
507	0.527946
508	0.533028
509	0.535291
510	0.538708
511	0.540375
512	0.539542
513	0.537240
514	0.533224
515	0.528271
516	0.521513
517	0.514311
518	0.507488
519	0.499046
520	0.492243
521	0.486045
522	0.480424
523	0.474530
524	0.468948
525	0.463635
526	0.458307
527	0.452335
528	0.446715
529	0.441032
530	0.435414
531	0.430706
532	0.425899
533	0.420312
534	0.415825
535	0.410462
536	0.405726
537	0.401373
538	0.396553
539	0.391526
540	0.386175
541	0.380971
542	0.376574
543	0.372118
544	0.367978
545	0.363779
546	0.360526
547	0.357016
548	0.354057
549	0.351455
550	0.348646
551	0.345848
552	0.341968
553	0.338853
554	0.335118
555	0.331182
556	0.326729
557	0.322522
558	0.318961
559	0.314413
560	0.309936
561	0.306798
562	0.305252
563	0.303267
564	0.298049
565	0.288542
566	0.275988
567	0.263172
568	0.249785
569	0.237624
570	0.228146
571	0.222671
572	0.218251
573	0.213853
574	0.209800
575	0.206685
576	0.204246
577	0.202886
578	0.202436
579	0.202743
580	0.203557
581	0.204611
582	0.205640
583	0.206102
584	0.205327
585	0.202651
586	0.197968
587	0.190764
588	0.180542
589	0.168167
590	0.153214
591	0.136575
592	0.118560
593	0.100336
594	0.082614
595	0.066004
596	0.051201
597	0.038566
598	0.028411
599	0.020504
600	0.014724
601	0.010749
602	0.008137
603	0.006438
604	0.005326
605	0.004524
606	0.003874
607	0.003296
608	0.002793
609	0.002360
610	0.002029
611	0.001807
612	0.001691
613	0.001668
614	0.001704
615	0.001775
616	0.001858
617	0.001936
618	0.001997
619	0.002052
620	0.002098
621	0.002143
622	0.002193
623	0.002251
624	0.002314
625	0.002387
626	0.002471
627	0.002563
628	0.002660
629	0.002733
630	0.002783
631	0.002832
632	0.002882
633	0.002964
634	0.003102
635	0.003307
636	0.003568
637	0.003859
638	0.004176
639	0.004480
640	0.004727
641	0.004902
642	0.004980
643	0.004953
644	0.004801
645	0.004588
646	0.004430
647	0.004395
648	0.004598
649	0.005035
650	0.005706
651	0.006436
652	0.007099
653	0.007570
654	0.007787
655	0.007720
656	0.007571
657	0.007527
658	0.007703
659	0.008299
660	0.009226
661	0.010284
662	0.011364
663	0.012082
664	0.012489
665	0.012479
666	0.012460
667	0.012754
668	0.013240
669	0.014365
670	0.015967
