# Spalte1: Wellenlänge [nm]
# Spalte2: Intensität
417	0.021610
418	0.017436
419	0.014388
420	0.011528
421	0.009474
422	0.007934
423	0.006834
424	0.006084
425	0.005471
426	0.004986
427	0.004579
428	0.004190
429	0.003822
430	0.003478
431	0.003137
432	0.002828
433	0.002556
434	0.002307
435	0.002082
436	0.001887
437	0.001716
438	0.001561
439	0.001415
440	0.001281
441	0.001160
442	0.001051
443	0.000956
444	0.000879
445	0.000817
446	0.000770
447	0.000737
448	0.000716
449	0.000705
450	0.000701
451	0.000702
452	0.000706
453	0.000712
454	0.000719
455	0.000730
456	0.000744
457	0.000761
458	0.000785
459	0.000817
460	0.000856
461	0.000905
462	0.000959
463	0.001018
464	0.001080
465	0.001143
466	0.001210
467	0.001285
468	0.001373
469	0.001478
470	0.001611
471	0.001772
472	0.001966
473	0.002194
474	0.002452
475	0.002729
476	0.003035
477	0.003383
478	0.003799
479	0.004327
480	0.005041
481	0.006024
482	0.007357
483	0.009079
484	0.011205
485	0.013677
486	0.016440
487	0.019369
488	0.022313
489	0.025131
490	0.027822
491	0.030360
492	0.032941
493	0.035681
494	0.038818
495	0.042489
496	0.046845
497	0.051738
498	0.057057
499	0.062662
500	0.068521
501	0.074477
502	0.080525
503	0.086850
504	0.093668
505	0.100751
506	0.109271
507	0.118938
508	0.129774
509	0.141094
510	0.153644
511	0.166338
512	0.178527
513	0.190172
514	0.200922
515	0.210891
516	0.219637
517	0.227680
518	0.235436
519	0.242050
520	0.249176
521	0.256498
522	0.264176
523	0.271877
524	0.279988
525	0.288477
526	0.297042
527	0.305019
528	0.312750
529	0.319634
530	0.325481
531	0.330745
532	0.334617
533	0.336613
534	0.338420
535	0.338722
536	0.339039
537	0.339433
538	0.339349
539	0.339053
540	0.338382
541	0.337621
542	0.337224
543	0.336321
544	0.335227
545	0.333683
546	0.332802
547	0.331731
548	0.331488
549	0.332124
550	0.333234
551	0.335026
552	0.336315
553	0.338710
554	0.340641
555	0.342371
556	0.343533
557	0.345025
558	0.347519
559	0.349525
560	0.352435
561	0.357901
562	0.366390
563	0.375471
564	0.381327
565	0.381895
566	0.378065
567	0.373228
568	0.366904
569	0.361849
570	0.360686
571	0.366122
572	0.373810
573	0.381851
574	0.390362
575	0.399945
576	0.409675
577	0.420089
578	0.430900
579	0.442117
580	0.453804
581	0.466173
582	0.479534
583	0.493590
584	0.507692
585	0.521064
586	0.534216
587	0.546401
588	0.556302
589	0.566294
590	0.574213
591	0.581541
592	0.586860
593	0.591744
594	0.595780
595	0.597828
596	0.598236
597	0.595686
598	0.592615
599	0.586155
600	0.578756
601	0.572284
602	0.567340
603	0.563140
604	0.561766
605	0.560732
606	0.559952
607	0.557520
608	0.555957
609	0.551202
610	0.545460
611	0.538573
612	0.531056
613	0.525531
614	0.520281
615	0.517007
616	0.515034
617	0.512593
618	0.507594
619	0.500902
620	0.490172
621	0.476336
622	0.460704
623	0.445378
624	0.431241
625	0.420932
626	0.415782
627	0.415429
628	0.419100
629	0.420878
630	0.419121
631	0.413833
632	0.401367
633	0.382734
634	0.359293
635	0.333414
636	0.306817
637	0.281616
638	0.260580
639	0.242433
640	0.225207
641	0.207896
642	0.189399
643	0.169291
644	0.146812
645	0.123550
646	0.101579
647	0.081244
648	0.064142
649	0.050132
650	0.039499
651	0.031228
652	0.025007
653	0.020363
654	0.017016
655	0.014606
656	0.013079
657	0.012210
658	0.011645
659	0.011346
660	0.011087
661	0.010779
662	0.010533
663	0.010169
664	0.009836
665	0.009439
666	0.009210
667	0.009268
668	0.009403
669	0.009859
670	0.010527
