# Spalte1: Wellenlänge [nm]
# Spalte2: Intensität
417	0.062818
418	0.053379
419	0.047319
420	0.041145
421	0.036511
422	0.032268
423	0.028255
424	0.024481
425	0.020580
426	0.016995
427	0.013923
428	0.011437
429	0.009644
430	0.008518
431	0.007888
432	0.007657
433	0.007640
434	0.007637
435	0.007537
436	0.007303
437	0.006923
438	0.006412
439	0.005812
440	0.005189
441	0.004609
442	0.004094
443	0.003668
444	0.003344
445	0.003102
446	0.002929
447	0.002814
448	0.002743
449	0.002705
450	0.002695
451	0.002711
452	0.002747
453	0.002809
454	0.002895
455	0.003015
456	0.003164
457	0.003337
458	0.003539
459	0.003761
460	0.003997
461	0.004253
462	0.004513
463	0.004784
464	0.005062
465	0.005356
466	0.005673
467	0.006039
468	0.006465
469	0.006962
470	0.007558
471	0.008251
472	0.009056
473	0.009973
474	0.010993
475	0.012073
476	0.013245
477	0.014509
478	0.015879
479	0.017371
480	0.019083
481	0.021093
482	0.023473
483	0.026231
484	0.029375
485	0.032809
486	0.036515
487	0.040352
488	0.044139
489	0.047698
490	0.051046
491	0.054077
492	0.057001
493	0.059851
494	0.062853
495	0.066103
496	0.069789
497	0.073705
498	0.077763
499	0.081833
500	0.085897
501	0.089726
502	0.093250
503	0.096608
504	0.099992
505	0.103185
506	0.107501
507	0.112759
508	0.119158
509	0.126235
510	0.134753
511	0.143723
512	0.152457
513	0.160707
514	0.167936
515	0.174046
516	0.178603
517	0.182140
518	0.185267
519	0.187724
520	0.191254
521	0.195974
522	0.202220
523	0.209731
524	0.218601
525	0.228500
526	0.238881
527	0.248979
528	0.258988
529	0.268498
530	0.277554
531	0.286814
532	0.295834
533	0.304334
534	0.313878
535	0.323209
536	0.333615
537	0.344995
538	0.356553
539	0.368257
540	0.379594
541	0.390560
542	0.401448
543	0.411128
544	0.420031
545	0.428116
546	0.437295
547	0.447049
548	0.459220
549	0.474124
550	0.490999
551	0.509524
552	0.527004
553	0.545121
554	0.561048
555	0.575555
556	0.589222
557	0.605471
558	0.627708
559	0.655190
560	0.691598
561	0.740531
562	0.802729
563	0.871767
564	0.936220
565	0.987289
566	1.023798
567	1.052960
568	1.072853
569	1.091419
570	1.117091
571	1.159001
572	1.203739
573	1.244586
574	1.281273
575	1.315502
576	1.344378
577	1.370195
578	1.392757
579	1.412876
580	1.431422
581	1.449591
582	1.468681
583	1.488071
584	1.506213
585	1.521408
586	1.535829
587	1.547948
588	1.554548
589	1.562537
590	1.565934
591	1.568845
592	1.567634
593	1.566994
594	1.566484
595	1.563819
596	1.560348
597	1.552497
598	1.545601
599	1.530522
600	1.511682
601	1.492141
602	1.472341
603	1.450311
604	1.432549
605	1.414705
606	1.399138
607	1.383373
608	1.375218
609	1.365230
610	1.358096
611	1.351887
612	1.345968
613	1.345169
614	1.343967
615	1.346389
616	1.351253
617	1.355181
618	1.354191
619	1.352095
620	1.343433
621	1.330745
622	1.316436
623	1.304213
624	1.293591
625	1.289475
626	1.293961
627	1.305537
628	1.323261
629	1.330869
630	1.326385
631	1.312725
632	1.280350
633	1.233129
634	1.174427
635	1.109203
636	1.039173
637	0.967450
638	0.900765
639	0.834795
640	0.765031
641	0.692409
642	0.617631
643	0.542419
644	0.465526
645	0.391255
646	0.324133
647	0.263042
648	0.211487
649	0.168344
650	0.134844
651	0.108214
652	0.087995
653	0.072906
654	0.062021
655	0.054025
656	0.048798
657	0.045736
658	0.043806
659	0.043070
660	0.042759
661	0.042489
662	0.042666
663	0.042573
664	0.042845
665	0.043008
666	0.043888
667	0.045786
668	0.047351
669	0.049583
670	0.051958
