# Spalte1: Wellenlänge [nm]
# Spalte2: Intensität
417	0.008891
418	0.007145
419	0.005771
420	0.004495
421	0.003587
422	0.002905
423	0.002392
424	0.001996
425	0.001647
426	0.001356
427	0.001119
428	0.000933
429	0.000798
430	0.000708
431	0.000648
432	0.000611
433	0.000588
434	0.000566
435	0.000542
436	0.000515
437	0.000485
438	0.000455
439	0.000424
440	0.000395
441	0.000371
442	0.000352
443	0.000338
444	0.000332
445	0.000334
446	0.000344
447	0.000364
448	0.000395
449	0.000438
450	0.000494
451	0.000566
452	0.000652
453	0.000756
454	0.000878
455	0.001023
456	0.001191
457	0.001383
458	0.001603
459	0.001851
460	0.002131
461	0.002449
462	0.002801
463	0.003194
464	0.003627
465	0.004104
466	0.004629
467	0.005217
468	0.005875
469	0.006610
470	0.007450
471	0.008393
472	0.009460
473	0.010660
474	0.011992
475	0.013414
476	0.014956
477	0.016598
478	0.018315
479	0.020068
480	0.021897
481	0.023821
482	0.025852
483	0.027969
484	0.030181
485	0.032426
486	0.034742
487	0.037054
488	0.039248
489	0.041197
490	0.042911
491	0.044264
492	0.045363
493	0.046155
494	0.046752
495	0.047179
496	0.047587
497	0.047899
498	0.048174
499	0.048471
500	0.048905
501	0.049428
502	0.050029
503	0.050724
504	0.051479
505	0.051996
506	0.052738
507	0.053428
508	0.054048
509	0.054374
510	0.054816
511	0.055096
512	0.055153
513	0.055105
514	0.054922
515	0.054669
516	0.054227
517	0.053700
518	0.053139
519	0.052305
520	0.051525
521	0.050686
522	0.049793
523	0.048774
524	0.047708
525	0.046607
526	0.045456
527	0.044203
528	0.042955
529	0.041680
530	0.040401
531	0.039208
532	0.038024
533	0.036808
534	0.035743
535	0.034672
536	0.033735
537	0.032916
538	0.032144
539	0.031437
540	0.030776
541	0.030185
542	0.029701
543	0.029241
544	0.028826
545	0.028420
546	0.028107
547	0.027798
548	0.027567
549	0.027408
550	0.027280
551	0.027201
552	0.027076
553	0.027040
554	0.026973
555	0.026898
556	0.026786
557	0.026702
558	0.026686
559	0.026609
560	0.026566
561	0.026670
562	0.026947
563	0.027214
564	0.027200
565	0.026779
566	0.026038
567	0.025222
568	0.024302
569	0.023459
570	0.022849
571	0.022618
572	0.022471
573	0.022286
574	0.022071
575	0.021864
576	0.021621
577	0.021381
578	0.021140
579	0.020912
580	0.020710
581	0.020551
582	0.020452
583	0.020399
584	0.020360
585	0.020303
586	0.020246
587	0.020157
588	0.019987
589	0.019819
590	0.019568
591	0.019281
592	0.018900
593	0.018470
594	0.017969
595	0.017354
596	0.016626
597	0.015743
598	0.014766
599	0.013629
600	0.012406
601	0.011157
602	0.009916
603	0.008694
604	0.007547
605	0.006461
606	0.005455
607	0.004528
608	0.003715
609	0.002998
610	0.002397
611	0.001910
612	0.001534
613	0.001260
614	0.001064
615	0.000929
616	0.000836
617	0.000767
618	0.000718
619	0.000691
620	0.000690
621	0.000720
622	0.000779
623	0.000859
624	0.000942
625	0.001014
626	0.001062
627	0.001079
628	0.001071
629	0.001041
630	0.001009
631	0.000998
632	0.001017
633	0.001072
634	0.001157
635	0.001257
636	0.001354
637	0.001435
638	0.001503
639	0.001555
640	0.001589
641	0.001613
642	0.001633
643	0.001657
644	0.001677
645	0.001698
646	0.001727
647	0.001749
648	0.001784
649	0.001834
650	0.001943
651	0.002108
652	0.002342
653	0.002629
654	0.002935
655	0.003184
656	0.003362
657	0.003448
658	0.003418
659	0.003357
660	0.003300
661	0.003310
662	0.003487
663	0.003796
664	0.004257
665	0.004724
666	0.005145
667	0.005418
668	0.005299
669	0.004928
670	0.004404
