5001	500.001	24.6	
5002	500.101	24.55	
5003	500.201	24.6	
5004	500.301	24.6	
5005	500.401	24.6	
5006	500.501	24.6	
5007	500.601	24.6	
5008	500.701	24.6	
5009	500.801	24.6	
5010	500.901	24.6	
5011	501.001	24.6	
5012	501.101	24.6	
5013	501.201	24.6	
5014	501.301	24.6	
5015	501.401	24.6	
5016	501.501	24.6	
5017	501.601	24.6	
5018	501.701	24.6	
5019	501.801	24.6	
5020	501.901	24.6	
5021	502.001	24.6	
5022	502.101	24.6	
5023	502.201	24.6	
5024	502.301	24.6	
5025	502.401	24.6	
5026	502.501	24.6	
5027	502.601	24.6	
5028	502.701	24.6	
5029	502.801	24.6	
5030	502.901	24.6	
5031	503.001	24.6	
5032	503.101	24.6	
5033	503.201	24.6	
5034	503.301	24.6	
5035	503.401	24.6	
5036	503.501	24.6	
5037	503.601	24.6	
5038	503.701	24.6	
5039	503.801	24.6	
5040	503.901	24.6	
5041	504.001	24.6	
5042	504.101	24.6	
5043	504.201	24.6	
5044	504.301	24.6	
5045	504.401	24.6	
5046	504.501	24.6	
5047	504.601	24.6	
5048	504.701	24.6	
5049	504.801	24.6	
5050	504.901	24.6	
5051	505.001	24.6	
5052	505.101	24.6	
5053	505.201	24.6	
5054	505.301	24.6	
5055	505.401	24.55	
5056	505.501	24.5	
5057	505.603	24.55	
5058	505.701	24.55	
5059	505.801	24.6	
5060	505.901	24.6	
5061	506.001	24.6	
5062	506.101	24.55	
5063	506.201	24.55	
5064	506.301	24.6	
5065	506.401	24.6	
5066	506.501	24.6	
5067	506.601	24.6	
5068	506.701	24.6	
5069	506.801	24.6	
5070	506.901	24.6	
5071	507.001	24.6	
5072	507.101	24.6	
5073	507.201	24.6	
5074	507.301	24.6	
5075	507.401	24.6	
5076	507.501	24.6	
5077	507.601	24.6	
5078	507.701	24.6	
5079	507.801	24.6	
5080	507.901	24.6	
5081	508.001	24.55	
5082	508.101	24.6	
5083	508.201	24.6	
5084	508.301	24.6	
5085	508.401	24.6	
5086	508.501	24.6	
5087	508.601	24.6	
5088	508.701	24.6	
5089	508.801	24.6	
5090	508.901	24.55	
5091	509.001	24.55	
5092	509.101	24.55	
5093	509.201	24.55	
5094	509.301	24.55	
5095	509.401	24.55	
5096	509.501	24.55	
5097	509.601	24.6	
5098	509.701	24.55	
5099	509.801	24.55	
5100	509.901	24.55	
5101	510.001	24.55	
5102	510.101	24.55	
5103	510.201	24.55	
5104	510.301	24.55	
5105	510.401	24.55	
5106	510.501	24.55	
5107	510.601	24.55	
5108	510.701	24.55	
5109	510.801	24.55	
5110	510.901	24.55	
5111	511.001	24.55	
5112	511.101	24.55	
5113	511.201	24.55	
5114	511.301	24.55	
5115	511.401	24.55	
5116	511.501	24.55	
5117	511.601	24.55	
5118	511.701	24.55	
5119	511.801	24.55	
5120	511.901	24.5	
5121	512.001	24.5	
5122	512.101	24.55	
5123	512.201	24.55	
5124	512.301	24.5	
5125	512.401	24.5	
5126	512.501	24.5	
5127	512.601	24.5	
5128	512.701	24.5	
5129	512.801	24.5	
5130	512.901	24.5	
5131	513.001	24.5	
5132	513.101	24.5	
5133	513.201	24.5	
5134	513.301	24.5	
5135	513.401	24.5	
5136	513.501	24.5	
5137	513.601	24.5	
5138	513.701	24.5	
5139	513.801	24.5	
5140	513.901	24.5	
5141	514.001	24.5	
5142	514.101	24.5	
5143	514.201	24.5	
5144	514.301	24.5	
5145	514.401	24.45	
5146	514.501	24.45	
5147	514.601	24.45	
5148	514.701	24.5	
5149	514.801	24.5	
5150	514.901	24.5	
5151	515.001	24.5	
5152	515.101	24.5	
5153	515.201	24.45	
5154	515.301	24.45	
5155	515.401	24.45	
5156	515.501	24.45	
5157	515.601	24.5	
5158	515.701	24.45	
5159	515.801	24.45	
5160	515.901	24.45	
5161	516.001	24.5	
5162	516.101	24.5	
5163	516.201	24.5	
5164	516.301	24.5	
5165	516.401	24.45	
5166	516.501	24.45	
5167	516.601	24.45	
5168	516.701	24.45	
5169	516.801	24.5	
5170	516.901	24.5	
5171	517.001	24.45	
5172	517.101	24.45	
5173	517.201	24.45	
5174	517.301	24.45	
5175	517.401	24.45	
5176	517.501	24.45	
5177	517.601	24.45	
5178	517.701	24.5	
5179	517.801	24.45	
5180	517.901	24.45	
5181	518.001	24.45	
5182	518.101	24.45	
5183	518.201	24.45	
5184	518.301	24.45	
5185	518.401	24.45	
5186	518.501	24.45	
5187	518.601	24.45	
5188	518.701	24.45	
5189	518.801	24.45	
5190	518.901	24.45	
5191	519.001	24.45	
5192	519.101	24.45	
5193	519.201	24.5	
5194	519.301	24.45	
5195	519.401	24.45	
5196	519.501	24.45	
5197	519.601	24.45	
5198	519.701	24.45	
5199	519.801	24.45	
5200	519.901	24.45	
5201	520.001	24.45	
5202	520.101	24.45	
5203	520.201	24.45	
5204	520.301	24.4	
5205	520.401	24.4	
5206	520.501	24.4	
5207	520.601	24.4	
5208	520.701	24.4	
5209	520.801	24.45	
5210	520.901	24.45	
5211	521.001	24.45	
5212	521.101	24.4	
5213	521.201	24.4	
5214	521.301	24.4	
5215	521.401	24.4	
5216	521.501	24.4	
5217	521.601	24.4	
5218	521.701	24.4	
5219	521.801	24.45	
5220	521.901	24.4	
5221	522.001	24.4	
5222	522.101	24.4	
5223	522.201	24.4	
5224	522.301	24.4	
5225	522.401	24.4	
5226	522.501	24.4	
5227	522.601	24.4	
5228	522.701	24.4	
5229	522.801	24.4	
5230	522.901	24.4	
5231	523.001	24.4	
5232	523.101	24.4	
5233	523.201	24.4	
5234	523.301	24.4	
5235	523.401	24.4	
5236	523.501	24.4	
5237	523.601	24.4	
5238	523.701	24.4	
5239	523.801	24.4	
5240	523.901	24.4	
5241	524.001	24.4	
5242	524.101	24.4	
5243	524.201	24.4	
5244	524.301	24.4	
5245	524.401	24.4	
5246	524.501	24.4	
5247	524.601	24.4	
5248	524.701	24.4	
5249	524.801	24.4	
5250	524.901	24.4	
5251	525.001	24.4	
5252	525.101	24.4	
5253	525.201	24.4	
5254	525.301	24.4	
5255	525.401	24.4	
5256	525.501	24.4	
5257	525.601	24.4	
5258	525.701	24.4	
5259	525.801	24.4	
5260	525.901	24.4	
5261	526.001	24.35	
5262	526.101	24.35	
5263	526.201	24.4	
5264	526.301	24.4	
5265	526.401	24.4	
5266	526.501	24.4	
5267	526.601	24.35	
5268	526.701	24.35	
5269	526.801	24.35	
5270	526.901	24.4	
5271	527.001	24.4	
5272	527.101	24.4	
5273	527.201	24.35	
5274	527.301	24.35	
5275	527.401	24.35	
5276	527.501	24.35	
5277	527.601	24.35	
5278	527.701	24.35	
5279	527.801	24.35	
5280	527.901	24.35	
5281	528.001	24.35	
5282	528.101	24.35	
5283	528.201	24.35	
5284	528.301	24.35	
5285	528.401	24.35	
5286	528.501	24.35	
5287	528.601	24.35	
5288	528.701	24.35	
5289	528.801	24.35	
5290	528.901	24.35	
5291	529.001	24.35	
5292	529.101	24.35	
5293	529.201	24.35	
5294	529.301	24.3	
5295	529.401	24.35	
5296	529.501	24.35	
5297	529.601	24.35	
5298	529.701	24.35	
5299	529.801	24.35	
5300	529.901	24.35	
5301	530.001	24.35	
5302	530.101	24.35	
5303	530.201	24.35	
5304	530.301	24.35	
5305	530.401	24.35	
5306	530.501	24.35	
5307	530.601	24.35	
5308	530.701	24.35	
5309	530.801	24.35	
5310	530.901	24.35	
5311	531.001	24.35	
5312	531.101	24.35	
5313	531.201	24.35	
5314	531.301	24.35	
5315	531.401	24.35	
5316	531.501	24.3	
5317	531.601	24.35	
5318	531.701	24.35	
5319	531.801	24.35	
5320	531.901	24.35	
5321	532.001	24.3	
5322	532.101	24.3	
5323	532.201	24.35	
5324	532.301	24.3	
5325	532.401	24.3	
5326	532.501	24.35	
5327	532.601	24.35	
5328	532.701	24.3	
5329	532.801	24.3	
5330	532.901	24.3	
5331	533.001	24.3	
5332	533.101	24.3	
5333	533.201	24.3	
5334	533.301	24.3	
5335	533.401	24.35	
5336	533.501	24.3	
5337	533.601	24.3	
5338	533.701	24.3	
5339	533.801	24.3	
5340	533.901	24.3	
5341	534.001	24.3	
5342	534.101	24.3	
5343	534.201	24.3	
5344	534.301	24.35	
5345	534.401	24.3	
5346	534.501	24.3	
5347	534.601	24.3	
5348	534.701	24.3	
5349	534.801	24.3	
5350	534.901	24.3	
5351	535.001	24.3	
5352	535.101	24.3	
5353	535.201	24.3	
5354	535.301	24.3	
5355	535.401	24.3	
5356	535.501	24.3	
5357	535.601	24.3	
5358	535.701	24.3	
5359	535.801	24.3	
5360	535.901	24.3	
5361	536.001	24.3	
5362	536.101	24.3	
5363	536.201	24.3	
5364	536.301	24.3	
5365	536.401	24.3	
5366	536.501	24.3	
5367	536.601	24.3	
5368	536.701	24.3	
5369	536.801	24.3	
5370	536.901	24.3	
5371	537.001	24.3	
5372	537.101	24.3	
5373	537.201	24.3	
5374	537.301	24.3	
5375	537.401	24.3	
5376	537.501	24.3	
5377	537.601	24.3	
5378	537.701	24.3	
5379	537.801	24.3	
5380	537.901	24.3	
5381	538.001	24.3	
5382	538.101	24.3	
5383	538.201	24.3	
5384	538.301	24.3	
5385	538.401	24.3	
5386	538.501	24.3	
5387	538.601	24.3	
5388	538.701	24.3	
5389	538.801	24.3	
5390	538.901	24.3	
5391	539.001	24.3	
5392	539.101	24.3	
5393	539.201	24.3	
5394	539.301	24.3	
5395	539.401	24.3	
5396	539.501	24.3	
5397	539.601	24.3	
5398	539.701	24.3	
5399	539.801	24.3	
5400	539.901	24.3	
5401	540.001	24.3	
5402	540.101	24.3	
5403	540.201	24.3	
5404	540.301	24.3	
5405	540.401	24.3	
5406	540.501	24.3	
5407	540.601	24.3	
5408	540.701	24.25	
5409	540.801	24.3	
5410	540.901	24.3	
5411	541.001	24.3	
5412	541.101	24.25	
5413	541.201	24.3	
5414	541.301	24.25	
5415	541.401	24.3	
5416	541.501	24.3	
5417	541.601	24.3	
5418	541.701	24.25	
5419	541.801	24.25	
5420	541.901	24.3	
5421	542.001	24.25	
5422	542.101	24.25	
5423	542.201	24.25	
5424	542.301	24.25	
5425	542.401	24.25	
5426	542.501	24.25	
5427	542.601	24.25	
5428	542.701	24.25	
5429	542.801	24.25	
5430	542.901	24.25	
5431	543.001	24.25	
5432	543.101	24.25	
5433	543.201	24.25	
5434	543.301	24.3	
5435	543.401	24.25	
5436	543.501	24.25	
5437	543.601	24.25	
5438	543.701	24.25	
5439	543.801	24.25	
5440	543.901	24.25	
5441	544.001	24.25	
5442	544.101	24.25	
5443	544.201	24.25	
5444	544.301	24.25	
5445	544.401	24.25	
5446	544.501	24.25	
5447	544.601	24.25	
5448	544.701	24.25	
5449	544.801	24.25	
5450	544.901	24.25	
5451	545.001	24.25	
5452	545.101	24.25	
5453	545.201	24.25	
5454	545.301	24.25	
5455	545.401	24.25	
5456	545.501	24.25	
5457	545.601	24.2	
5458	545.701	24.25	
5459	545.801	24.25	
5460	545.901	24.25	
5461	546.001	24.25	
5462	546.101	24.25	
5463	546.201	24.25	
5464	546.301	24.25	
5465	546.401	24.25	
5466	546.501	24.25	
5467	546.601	24.25	
5468	546.701	24.25	
5469	546.801	24.25	
5470	546.901	24.25	
5471	547.001	24.25	
5472	547.101	24.25	
5473	547.201	24.25	
5474	547.301	24.25	
5475	547.401	24.2	
5476	547.501	24.25	
5477	547.601	24.25	
5478	547.701	24.25	
5479	547.801	24.25	
5480	547.901	24.2	
5481	548.001	24.2	
5482	548.101	24.25	
5483	548.201	24.2	
5484	548.301	24.25	
5485	548.401	24.25	
5486	548.501	24.2	
5487	548.601	24.2	
5488	548.701	24.25	
5489	548.801	24.2	
5490	548.901	24.2	
5491	549.001	24.2	
5492	549.101	24.2	
5493	549.201	24.25	
5494	549.301	24.25	
5495	549.401	24.25	
5496	549.501	24.25	
5497	549.601	24.25	
5498	549.701	24.25	
5499	549.801	24.25	
5500	549.901	24.3	
5501	550.001	24.2	
5502	550.101	24.2	
5503	550.201	24.2	
5504	550.301	24.2	
5505	550.401	24.25	
5506	550.501	24.2	
5507	550.601	24.25	
5508	550.701	24.2	
5509	550.801	24.2	
5510	550.901	24.2	
5511	551.001	24.2	
5512	551.101	24.2	
5513	551.201	24.2	
5514	551.301	24.2	
5515	551.401	24.2	
5516	551.501	24.2	
5517	551.601	24.2	
5518	551.701	24.2	
5519	551.801	24.2	
5520	551.901	24.2	
5521	552.001	24.2	
5522	552.101	24.2	
5523	552.201	24.15	
5524	552.301	24.2	
5525	552.401	24.2	
5526	552.501	24.2	
5527	552.601	24.15	
5528	552.701	24.2	
5529	552.801	24.15	
5530	552.901	24.15	
5531	553.001	24.15	
5532	553.101	24.15	
5533	553.201	24.15	
5534	553.301	24.15	
5535	553.401	24.15	
5536	553.501	24.15	
5537	553.775	24.15	
5538	553.785	24.15	
5539	553.801	24.15	
5540	553.901	24.15	
5541	554.001	24.15	
5542	554.101	24.15	
5543	554.201	24.15	
5544	554.301	24.15	
5545	554.401	24.15	
5546	554.501	24.15	
5547	554.601	24.15	
5548	554.701	24.15	
5549	554.801	24.15	
5550	554.901	24.15	
5551	555.001	24.15	
5552	555.101	24.15	
5553	555.201	24.15	
5554	555.301	24.15	
5555	555.401	24.15	
5556	555.501	24.15	
5557	555.601	24.15	
5558	555.701	24.15	
5559	555.801	24.15	
5560	555.901	24.15	
5561	556.001	24.15	
5562	556.101	24.15	
5563	556.201	24.15	
5564	556.301	24.15	
5565	556.401	24.15	
5566	556.501	24.15	
5567	556.601	24.1	
5568	556.701	24.1	
5569	556.801	24.15	
5570	556.901	24.1	
5571	557.001	24.1	
5572	557.101	24.1	
5573	557.201	24.1	
5574	557.301	24.1	
5575	557.401	24.1	
5576	557.501	24.1	
5577	557.601	24.1	
5578	557.701	24.1	
5579	557.801	24.15	
5580	557.901	24.15	
5581	558.001	24.1	
5582	558.101	24.15	
5583	558.201	24.1	
5584	558.301	24.1	
5585	558.401	24.1	
5586	558.501	24.1	
5587	558.601	24.1	
5588	558.701	24.1	
5589	558.801	24.1	
5590	558.901	24.1	
5591	559.001	24.1	
5592	559.101	24.15	
5593	559.201	24.1	
5594	559.301	24.1	
5595	559.401	24.1	
5596	559.501	24.05	
5597	559.601	24.1	
5598	559.701	24.15	
5599	559.801	24.1	
5600	559.901	24.1	
5601	560.001	24.1	
5602	560.101	24.1	
5603	560.201	24.1	
5604	560.301	24.1	
5605	560.401	24.1	
5606	560.501	24.1	
5607	560.601	24.1	
5608	560.701	24.1	
5609	560.801	24.15	
5610	560.901	24.1	
5611	561.001	24.1	
5612	561.101	24.1	
5613	561.201	24.1	
5614	561.301	24.1	
5615	561.401	24.15	
5616	561.501	24.1	
5617	561.601	24.1	
5618	561.701	24.1	
5619	561.801	24.1	
5620	561.901	24.1	
5621	562.001	24.1	
5622	562.101	24.1	
5623	562.201	24.1	
5624	562.301	24.1	
5625	562.401	24.1	
5626	562.501	24.1	
5627	562.601	24.1	
5628	562.701	24.1	
5629	562.801	24.1	
5630	562.901	24.1	
5631	563.001	24.1	
5632	563.101	24.1	
5633	563.201	24.1	
5634	563.301	24.1	
5635	563.401	24.15	
5636	563.501	24.1	
5637	563.601	24.1	
5638	563.701	24.1	
5639	563.801	24.1	
5640	563.901	24.1	
5641	564.001	24.1	
5642	564.101	24.1	
5643	564.201	24.1	
5644	564.301	24.1	
5645	564.401	24.1	
5646	564.501	24.1	
5647	564.601	24.1	
5648	564.701	24.1	
5649	564.801	24.1	
5650	564.901	24.1	
5651	565.001	24.1	
5652	565.101	24.1	
5653	565.201	24.1	
5654	565.301	24.1	
5655	565.401	24.1	
5656	565.501	24.1	
5657	565.601	24.1	
5658	565.701	24.1	
5659	565.801	24.1	
5660	565.901	24.1	
5661	566.001	24.1	
5662	566.101	24.1	
5663	566.201	24.1	
5664	566.301	24.1	
5665	566.401	24.1	
5666	566.501	24.1	
5667	566.601	24.1	
5668	566.701	24.1	
5669	566.801	24.1	
5670	566.901	24.1	
5671	567.001	24.1	
5672	567.101	24.1	
5673	567.201	24.1	
5674	567.301	24.1	
5675	567.401	24.1	
5676	567.501	24.1	
5677	567.601	24.1	
5678	567.701	24.1	
5679	567.801	24.05	
5680	567.901	24.05	
5681	568.001	24.1	
5682	568.101	24.1	
5683	568.201	24.05	
5684	568.301	24.1	
5685	568.401	24.1	
5686	568.501	24.05	
5687	568.601	24.1	
5688	568.701	24.1	
5689	568.801	24.1	
5690	568.901	24.1	
5691	569.001	24.1	
5692	569.101	24.1	
5693	569.201	24.05	
5694	569.301	24.1	
5695	569.401	24.05	
5696	569.501	24.05	
5697	569.601	24.05	
5698	569.701	24.05	
5699	569.801	24.05	
5700	569.901	24.05	
5701	570.001	24.1	
5702	570.101	24.05	
5703	570.201	24.05	
5704	570.301	24.1	
5705	570.401	24.1	
5706	570.501	24.1	
5707	570.601	24.1	
5708	570.701	24.05	
5709	570.801	24.05	
5710	570.901	24.05	
5711	571.001	24.05	
5712	571.101	24.1	
5713	571.201	24.05	
5714	571.301	24.05	
5715	571.401	24.1	
5716	571.501	24.1	
5717	571.601	24.05	
5718	571.701	24.05	
5719	571.801	24.05	
5720	571.901	24.05	
5721	572.001	24.05	
5722	572.101	24.05	
5723	572.201	24.05	
5724	572.301	24.05	
5725	572.401	24.05	
5726	572.501	24.05	
5727	572.601	24.05	
5728	572.701	24.05	
5729	572.801	24.05	
5730	572.901	24.05	
5731	573.001	24.05	
5732	573.101	24.05	
5733	573.201	24.05	
5734	573.301	24.05	
5735	573.401	24.05	
5736	573.501	24.05	
5737	573.601	24.05	
5738	573.701	24.05	
5739	573.801	24.05	
5740	573.901	24.05	
5741	574.001	24.05	
5742	574.101	24.05	
5743	574.201	24.05	
5744	574.301	24.05	
5745	574.401	24.05	
5746	574.501	24.05	
5747	574.601	24.05	
5748	574.701	24.05	
5749	574.801	24.05	
5750	574.901	24.05	
5751	575.001	24.05	
5752	575.101	24.05	
5753	575.201	24.05	
5754	575.301	24.05	
5755	575.401	24.05	
5756	575.501	24	
5757	575.601	24.05	
5758	575.701	24.05	
5759	575.801	24.05	
5760	575.901	24.05	
5761	576.001	24.05	
5762	576.101	24.05	
5763	576.201	24	
5764	576.301	24.05	
5765	576.401	24.05	
5766	576.501	24.05	
5767	576.601	24.05	
5768	576.701	24.05	
5769	576.801	24.05	
5770	576.901	24.05	
5771	577.001	24.05	
5772	577.101	24.05	
5773	577.201	24.05	
5774	577.301	24.05	
5775	577.401	24.05	
5776	577.501	24.05	
5777	577.601	24.05	
5778	577.701	24.05	
5779	577.801	24.05	
5780	577.901	24.05	
5781	578.001	24.05	
5782	578.101	24.05	
5783	578.201	24.05	
5784	578.301	24.05	
5785	578.401	24.05	
5786	578.501	24.05	
5787	578.601	24.05	
5788	578.701	24.05	
5789	578.801	24.05	
5790	578.901	24.05	
5791	579.001	24.05	
5792	579.101	24.05	
5793	579.201	24.05	
5794	579.301	24.05	
5795	579.401	24.05	
5796	579.501	24.05	
5797	579.601	24.05	
5798	579.701	24.05	
5799	579.801	24.05	
5800	579.901	24.05	
5801	580.001	24.05	
5802	580.101	24.05	
5803	580.201	24.05	
5804	580.301	24.05	
5805	580.401	24.05	
5806	580.501	24.05	
5807	580.601	24.05	
5808	580.701	24.05	
5809	580.801	24.05	
5810	580.901	24.05	
5811	581.001	24.05	
5812	581.101	24.05	
5813	581.201	24.05	
5814	581.301	24.05	
5815	581.401	24.05	
5816	581.501	24.05	
5817	581.601	24.05	
5818	581.701	24.05	
5819	581.801	24.05	
5820	581.903	24.1	
5821	582.001	24.05	
5822	582.101	24	
5823	582.201	24.05	
5824	582.301	24.05	
5825	582.401	24.05	
5826	582.501	24	
5827	582.601	24.05	
5828	582.701	24	
5829	582.801	24	
5830	582.901	24.05	
5831	583.001	24.05	
5832	583.101	24	
5833	583.201	24	
5834	583.301	24	
5835	583.401	24	
5836	583.501	24.05	
5837	583.601	24	
5838	583.701	24	
5839	583.801	24	
5840	583.901	24	
5841	584.001	24	
5842	584.101	24	
5843	584.201	24	
5844	584.301	24	
5845	584.401	24	
5846	584.501	24	
5847	584.601	24	
5848	584.701	24	
5849	584.801	24	
5850	584.901	24	
5851	585.001	24	
5852	585.101	24	
5853	585.201	24	
5854	585.301	24	
5855	585.401	24	
5856	585.501	24	
5857	585.601	24	
5858	585.701	24	
5859	585.801	24	
5860	585.901	24	
5861	586.001	24	
5862	586.101	24	
5863	586.201	24	
5864	586.301	24	
5865	586.401	24	
5866	586.501	24	
5867	586.601	24	
5868	586.701	24	
5869	586.801	24	
5870	586.901	24	
5871	587.001	24	
5872	587.101	24	
5873	587.201	24	
5874	587.301	24	
5875	587.401	24	
5876	587.501	24	
5877	587.601	24	
5878	587.701	24	
5879	587.801	24	
5880	587.901	23.95	
5881	588.001	24	
5882	588.101	24	
5883	588.201	24	
5884	588.301	24	
5885	588.401	24	
5886	588.501	23.95	
5887	588.601	23.95	
5888	588.701	24	
5889	588.801	23.95	
5890	588.901	23.95	
5891	589.001	23.95	
5892	589.101	24	
5893	589.201	24	
5894	589.301	23.95	
5895	589.401	23.95	
5896	589.501	23.95	
5897	589.601	23.95	
5898	589.701	24	
5899	589.801	23.95	
5900	589.901	23.95	
5901	590.001	23.95	
5902	590.101	23.95	
5903	590.201	23.95	
5904	590.301	23.95	
5905	590.401	23.95	
5906	590.501	23.95	
5907	590.601	23.95	
5908	590.701	23.95	
5909	590.801	23.95	
5910	590.901	23.95	
5911	591.001	23.95	
5912	591.101	23.95	
5913	591.201	23.95	
5914	591.301	23.95	
5915	591.401	23.95	
5916	591.501	23.95	
5917	591.601	23.95	
5918	591.701	23.95	
5919	591.801	23.95	
5920	591.901	23.95	
5921	592.001	23.95	
5922	592.101	23.95	
5923	592.201	23.95	
5924	592.301	23.95	
5925	592.401	23.95	
5926	592.501	23.95	
5927	592.601	23.95	
5928	592.701	23.95	
5929	592.801	23.95	
5930	592.901	23.95	
5931	593.001	23.95	
5932	593.101	23.95	
5933	593.201	23.95	
5934	593.301	23.95	
5935	593.401	23.95	
5936	593.501	23.95	
5937	593.601	23.95	
5938	593.701	23.95	
5939	593.801	23.9	
5940	593.901	23.95	
5941	594.001	23.95	
5942	594.101	23.9	
5943	594.201	23.95	
5944	594.301	23.95	
5945	594.401	23.95	
5946	594.501	23.95	
5947	594.601	23.9	
5948	594.701	23.95	
5949	594.801	23.95	
5950	594.901	23.9	
5951	595.001	23.9	
5952	595.101	23.9	
5953	595.201	23.9	
5954	595.301	23.9	
5955	595.401	23.9	
5956	595.501	23.95	
5957	595.601	23.9	
5958	595.701	23.9	
5959	595.801	23.9	
5960	595.901	23.9	
5961	596.001	23.9	
5962	596.101	23.9	
5963	596.201	23.9	
5964	596.301	23.9	
5965	596.401	23.9	
5966	596.501	23.9	
5967	596.601	23.9	
5968	596.701	23.9	
5969	596.801	23.9	
5970	596.901	23.9	
5971	597.001	23.9	
5972	597.101	23.9	
5973	597.201	23.9	
5974	597.301	23.9	
5975	597.401	23.9	
5976	597.501	23.9	
5977	597.601	23.9	
5978	597.701	23.9	
5979	597.801	23.9	
5980	597.901	23.9	
5981	598.001	23.9	
5982	598.101	23.9	
5983	598.201	23.9	
5984	598.301	23.9	
5985	598.401	23.9	
5986	598.501	23.9	
5987	598.601	23.9	
5988	598.701	23.9	
5989	598.801	23.9	
5990	598.901	23.9	
5991	599.001	23.9	
5992	599.101	23.9	
5993	599.201	23.9	
5994	599.301	23.9	
5995	599.401	23.9	
5996	599.501	23.9	
5997	599.601	23.9	
5998	599.701	23.9	
5999	599.801	23.9	
6000	599.901	23.9	
6001	600.001	23.9	
6002	600.101	23.9	
6003	600.201	23.9	
6004	600.301	23.9	
6005	600.401	23.9	
6006	600.501	23.9	
6007	600.601	23.9	
6008	600.701	23.9	
6009	600.801	23.9	
6010	600.901	23.9	
6011	601.001	23.9	
6012	601.101	23.9	
6013	601.201	23.85	
6014	601.301	23.85	
6015	601.401	23.9	
6016	601.501	23.9	
6017	601.601	23.85	
6018	601.701	23.9	
6019	601.801	23.9	
6020	601.901	23.9	
6021	602.001	23.9	
6022	602.101	23.9	
6023	602.201	23.9	
6024	602.301	23.85	
6025	602.401	23.85	
6026	602.501	23.8	
6027	602.601	23.85	
6028	602.701	23.85	
6029	602.801	23.85	
6030	602.901	23.85	
6031	603.001	23.9	
6032	603.101	23.9	
6033	603.201	23.85	
6034	603.301	23.85	
6035	603.401	23.85	
6036	603.501	23.85	
6037	603.601	23.85	
6038	603.701	23.85	
6039	603.801	23.85	
6040	603.901	23.85	
6041	604.001	23.85	
6042	604.101	23.85	
6043	604.201	23.85	
6044	604.301	23.85	
6045	604.401	23.85	
6046	604.501	23.85	
6047	604.601	23.85	
6048	604.701	23.85	
6049	604.801	23.85	
6050	604.901	23.85	
6051	605.001	23.85	
6052	605.101	23.85	
6053	605.201	23.85	
6054	605.301	23.85	
6055	605.401	23.85	
6056	605.501	23.85	
6057	605.601	23.85	
6058	605.701	23.85	
6059	605.801	23.8	
6060	605.901	23.8	
6061	606.001	23.8	
6062	606.101	23.85	
6063	606.201	23.85	
6064	606.301	23.8	
6065	606.401	23.8	
6066	606.501	23.8	
6067	606.601	23.8	
6068	606.701	23.85	
6069	606.801	23.8	
6070	606.901	23.8	
6071	607.001	23.8	
6072	607.101	23.8	
6073	607.201	23.8	
6074	607.301	23.8	
6075	607.401	23.8	
6076	607.501	23.8	
6077	607.601	23.8	
6078	607.701	23.8	
6079	607.801	23.8	
6080	607.901	23.8	
6081	608.001	23.8	
6082	608.101	23.8	
6083	608.201	23.8	
6084	608.301	23.8	
6085	608.401	23.8	
6086	608.501	23.8	
6087	608.601	23.8	
6088	608.701	23.75	
6089	608.801	23.75	
6090	608.901	23.75	
6091	609.001	23.75	
6092	609.101	23.75	
6093	609.201	23.75	
6094	609.301	23.75	
6095	609.401	23.75	
6096	609.501	23.75	
6097	609.601	23.75	
6098	609.701	23.75	
6099	609.801	23.75	
6100	609.901	23.75	
6101	610.001	23.75	
6102	610.101	23.75	
6103	610.201	23.75	
6104	610.301	23.75	
6105	610.401	23.75	
6106	610.501	23.75	
6107	610.601	23.75	
6108	610.701	23.75	
6109	610.801	23.75	
6110	610.901	23.75	
6111	611.001	23.75	
6112	611.101	23.75	
6113	611.201	23.75	
6114	611.301	23.8	
6115	611.401	23.75	
6116	611.501	23.75	
6117	611.601	23.75	
6118	611.701	23.75	
6119	611.801	23.75	
6120	611.901	23.75	
6121	612.001	23.75	
6122	612.101	23.75	
6123	612.201	23.75	
6124	612.301	23.75	
6125	612.401	23.75	
6126	612.501	23.75	
6127	612.601	23.75	
6128	612.701	23.75	
6129	612.801	23.75	
6130	612.901	23.75	
6131	613.001	23.75	
6132	613.101	23.75	
6133	613.201	23.75	
6134	613.301	23.75	
6135	613.401	23.75	
6136	613.501	23.75	
6137	613.601	23.75	
6138	613.701	23.75	
6139	613.801	23.75	
6140	613.901	23.75	
6141	614.001	23.75	
6142	614.101	23.75	
6143	614.201	23.75	
6144	614.301	23.75	
6145	614.401	23.75	
6146	614.501	23.75	
6147	614.601	23.75	
6148	614.701	23.75	
6149	614.801	23.75	
6150	614.901	23.75	
6151	615.001	23.75	
6152	615.101	23.75	
6153	615.201	23.75	
6154	615.301	23.75	
6155	615.401	23.75	
6156	615.501	23.75	
6157	615.601	23.75	
6158	615.701	23.75	
6159	615.801	23.75	
6160	615.901	23.75	
6161	616.001	23.75	
6162	616.101	23.75	
6163	616.201	23.75	
6164	616.301	23.75	
6165	616.401	23.75	
6166	616.501	23.75	
6167	616.601	23.8	
6168	616.701	23.75	
6169	616.801	23.8	
6170	616.901	23.8	
6171	617.001	23.8	
6172	617.101	23.8	
6173	617.201	23.75	
6174	617.301	23.8	
6175	617.401	23.8	
6176	617.501	23.8	
6177	617.601	23.8	
6178	617.701	23.8	
6179	617.801	23.8	
6180	617.901	23.75	
6181	618.001	23.8	
6182	618.101	23.75	
6183	618.201	23.75	
6184	618.301	23.75	
6185	618.401	23.75	
6186	618.501	23.75	
6187	618.601	23.75	
6188	618.701	23.75	
6189	618.801	23.75	
6190	618.901	23.75	
6191	619.001	23.75	
6192	619.101	23.75	
6193	619.201	23.75	
6194	619.301	23.75	
6195	619.401	23.75	
6196	619.501	23.75	
6197	619.601	23.75	
6198	619.701	23.75	
6199	619.801	23.75	
6200	619.901	23.75	
6201	620.001	23.75	
6202	620.101	23.75	
6203	620.201	23.75	
6204	620.301	23.75	
6205	620.401	23.75	
6206	620.501	23.75	
6207	620.601	23.75	
6208	620.701	23.75	
6209	620.801	23.75	
6210	620.901	23.75	
6211	621.001	23.8	
6212	621.101	23.75	
6213	621.201	23.7	
6214	621.301	23.75	
6215	621.401	23.7	
6216	621.501	23.75	
6217	621.601	23.7	
6218	621.701	23.75	
6219	621.801	23.7	
6220	621.901	23.75	
6221	622.001	23.75	
6222	622.101	23.75	
6223	622.201	23.75	
6224	622.301	23.75	
6225	622.401	23.7	
6226	622.501	23.75	
6227	622.601	23.75	
6228	622.701	23.75	
6229	622.801	23.7	
6230	622.901	23.7	
6231	623.001	23.7	
6232	623.101	23.7	
6233	623.201	23.7	
6234	623.301	23.7	
6235	623.401	23.75	
6236	623.501	23.7	
6237	623.601	23.7	
6238	623.701	23.7	
6239	623.801	23.75	
6240	623.901	23.7	
6241	624.001	23.75	
6242	624.101	23.7	
6243	624.201	23.7	
6244	624.301	23.7	
6245	624.401	23.75	
6246	624.501	23.75	
6247	624.601	23.7	
6248	624.701	23.7	
6249	624.801	23.7	
6250	624.901	23.7	
6251	625.001	23.7	
6252	625.101	23.7	
6253	625.201	23.7	
6254	625.301	23.7	
6255	625.401	23.7	
6256	625.501	23.7	
6257	625.601	23.7	
6258	625.701	23.7	
6259	625.801	23.7	
6260	625.901	23.7	
6261	626.001	23.7	
6262	626.101	23.7	
6263	626.201	23.7	
6264	626.301	23.7	
6265	626.401	23.7	
6266	626.501	23.7	
6267	626.601	23.7	
6268	626.701	23.7	
6269	626.801	23.7	
6270	626.901	23.7	
6271	627.001	23.7	
6272	627.101	23.7	
6273	627.201	23.7	
6274	627.301	23.7	
6275	627.401	23.65	
6276	627.501	23.7	
6277	627.601	23.7	
6278	627.701	23.7	
6279	627.801	23.65	
6280	627.901	23.7	
6281	628.001	23.7	
6282	628.101	23.7	
6283	628.201	23.7	
6284	628.301	23.7	
6285	628.401	23.7	
6286	628.501	23.65	
6287	628.601	23.7	
6288	628.701	23.7	
6289	628.801	23.7	
6290	628.901	23.7	
6291	629.001	23.7	
6292	629.101	23.65	
6293	629.201	23.65	
6294	629.301	23.7	
6295	629.401	23.7	
6296	629.501	23.7	
6297	629.601	23.65	
6298	629.701	23.7	
6299	629.801	23.7	
6300	629.901	23.7	
6301	630.001	23.7	
6302	630.101	23.65	
6303	630.201	23.7	
6304	630.301	23.7	
6305	630.401	23.7	
6306	630.501	23.7	
6307	630.601	23.65	
6308	630.701	23.7	
6309	630.801	23.7	
6310	630.901	23.7	
6311	631.001	23.65	
6312	631.101	23.7	
6313	631.201	23.7	
6314	631.301	23.65	
6315	631.401	23.65	
6316	631.501	23.7	
6317	631.601	23.65	
6318	631.701	23.65	
6319	631.801	23.65	
6320	631.901	23.65	
6321	632.001	23.7	
6322	632.101	23.65	
6323	632.201	23.65	
6324	632.301	23.65	
6325	632.401	23.65	
6326	632.501	23.65	
6327	632.601	23.7	
6328	632.701	23.65	
6329	632.801	23.65	
6330	632.901	23.65	
6331	633.001	23.65	
6332	633.104	23.65	
6333	633.201	23.65	
6334	633.301	23.65	
6335	633.401	23.65	
6336	633.501	23.65	
6337	633.601	23.65	
6338	633.701	23.65	
6339	633.801	23.65	
6340	633.901	23.65	
6341	634.001	23.65	
6342	634.101	23.65	
6343	634.201	23.65	
6344	634.301	23.65	
6345	634.401	23.6	
6346	634.501	23.65	
6347	634.601	23.65	
6348	634.701	23.65	
6349	634.801	23.65	
6350	634.901	23.65	
6351	635.001	23.6	
6352	635.101	23.6	
6353	635.201	23.6	
6354	635.301	23.6	
6355	635.401	23.6	
6356	635.501	23.6	
6357	635.601	23.6	
6358	635.701	23.65	
6359	635.801	23.65	
6360	635.901	23.6	
6361	636.001	23.65	
6362	636.101	23.6	
6363	636.201	23.6	
6364	636.301	23.6	
6365	636.401	23.6	
6366	636.501	23.65	
6367	636.601	23.6	
6368	636.701	23.6	
6369	636.801	23.6	
6370	636.901	23.6	
6371	637.001	23.6	
6372	637.101	23.65	
6373	637.201	23.6	
6374	637.301	23.6	
6375	637.401	23.55	
6376	637.501	23.6	
6377	637.601	23.6	
6378	637.701	23.6	
6379	637.801	23.6	
6380	637.901	23.6	
6381	638.001	23.6	
6382	638.101	23.6	
6383	638.201	23.6	
6384	638.301	23.6	
6385	638.401	23.6	
6386	638.501	23.6	
6387	638.601	23.6	
6388	638.701	23.6	
6389	638.801	23.6	
6390	638.901	23.6	
6391	639.001	23.6	
6392	639.101	23.6	
6393	639.201	23.6	
6394	639.301	23.6	
6395	639.401	23.6	
6396	639.501	23.6	
6397	639.601	23.6	
6398	639.701	23.6	
6399	639.801	23.6	
6400	639.901	23.6	
6401	640.001	23.6	
6402	640.101	23.6	
6403	640.201	23.6	
6404	640.301	23.6	
6405	640.401	23.6	
6406	640.501	23.6	
6407	640.601	23.6	
6408	640.701	23.6	
6409	640.801	23.6	
6410	640.901	23.6	
6411	641.001	23.6	
6412	641.101	23.65	
6413	641.201	23.6	
6414	641.301	23.6	
6415	641.401	23.6	
6416	641.501	23.6	
6417	641.601	23.6	
6418	641.701	23.6	
6419	641.801	23.6	
6420	641.901	23.6	
6421	642.001	23.6	
6422	642.101	23.6	
6423	642.201	23.6	
6424	642.301	23.55	
6425	642.401	23.6	
6426	642.501	23.6	
6427	642.601	23.6	
6428	642.701	23.6	
6429	642.801	23.6	
6430	642.901	23.6	
6431	643.001	23.5	
6432	643.101	23.6	
6433	643.201	23.6	
6434	643.301	23.6	
6435	643.401	23.6	
6436	643.501	23.6	
6437	643.601	23.6	
6438	643.701	23.6	
6439	643.801	23.6	
6440	643.901	23.6	
6441	644.001	23.6	
6442	644.101	23.6	
6443	644.201	23.6	
6444	644.301	23.6	
6445	644.401	23.6	
6446	644.501	23.6	
6447	644.601	23.6	
6448	644.701	23.6	
6449	644.801	23.6	
6450	644.901	23.6	
6451	645.001	23.6	
6452	645.101	23.55	
6453	645.201	23.55	
6454	645.301	23.55	
6455	645.401	23.6	
6456	645.501	23.55	
6457	645.601	23.6	
6458	645.701	23.55	
6459	645.801	23.6	
6460	645.901	23.6	
6461	646.001	23.6	
6462	646.101	23.6	
6463	646.201	23.55	
6464	646.301	23.6	
6465	646.401	23.6	
6466	646.501	23.55	
6467	646.601	23.55	
6468	646.701	23.6	
6469	646.801	23.55	
6470	646.901	23.6	
6471	647.001	23.55	
6472	647.101	23.55	
6473	647.201	23.6	
6474	647.301	23.55	
6475	647.401	23.6	
6476	647.501	23.55	
6477	647.601	23.55	
6478	647.701	23.6	
6479	647.801	23.55	
6480	647.901	23.55	
6481	648.001	23.55	
6482	648.101	23.55	
6483	648.201	23.55	
6484	648.301	23.55	
6485	648.401	23.55	
6486	648.501	23.55	
6487	648.601	23.55	
6488	648.701	23.55	
6489	648.801	23.55	
6490	648.901	23.55	
6491	649.001	23.55	
6492	649.101	23.55	
6493	649.201	23.55	
6494	649.301	23.55	
6495	649.401	23.55	
6496	649.501	23.55	
6497	649.601	23.55	
6498	649.701	23.55	
6499	649.801	23.55	
6500	649.901	23.55	
6501	650.001	23.55	
6502	650.101	23.55	
6503	650.201	23.55	
6504	650.301	23.55	
6505	650.401	23.55	
6506	650.501	23.55	
6507	650.601	23.55	
6508	650.701	23.55	
6509	650.801	23.55	
6510	650.901	23.55	
6511	651.001	23.55	
6512	651.101	23.55	
6513	651.201	23.55	
6514	651.301	23.55	
6515	651.401	23.55	
6516	651.501	23.55	
6517	651.601	23.55	
6518	651.701	23.55	
6519	651.801	23.55	
6520	651.901	23.55	
6521	652.001	23.55	
6522	652.101	23.55	
6523	652.201	23.55	
6524	652.301	23.55	
6525	652.401	23.55	
6526	652.501	23.55	
6527	652.601	23.55	
6528	652.701	23.5	
6529	652.801	23.5	
6530	652.901	23.55	
6531	653.001	23.55	
6532	653.101	23.55	
6533	653.201	23.5	
6534	653.301	23.55	
6535	653.401	23.55	
6536	653.501	23.5	
6537	653.601	23.5	
6538	653.701	23.55	
6539	653.801	23.5	
6540	653.901	23.5	
6541	654.001	23.5	
6542	654.101	23.55	
6543	654.201	23.5	
6544	654.301	23.5	
6545	654.401	23.5	
6546	654.501	23.5	
6547	654.601	23.55	
6548	654.701	23.5	
6549	654.801	23.55	
6550	654.901	23.5	
6551	655.001	23.5	
6552	655.101	23.5	
6553	655.201	23.5	
6554	655.301	23.5	
6555	655.401	23.5	
6556	655.501	23.5	
6557	655.601	23.5	
6558	655.701	23.5	
6559	655.801	23.5	
6560	655.901	23.5	
6561	656.001	23.5	
6562	656.101	23.5	
6563	656.201	23.5	
6564	656.301	23.5	
6565	656.401	23.5	
6566	656.501	23.5	
6567	656.601	23.5	
6568	656.701	23.5	
6569	656.801	23.5	
6570	656.901	23.5	
6571	657.001	23.5	
6572	657.101	23.5	
6573	657.201	23.5	
6574	657.301	23.5	
6575	657.401	23.5	
6576	657.501	23.5	
6577	657.601	23.5	
6578	657.701	23.5	
6579	657.801	23.5	
6580	657.901	23.5	
6581	658.001	23.5	
6582	658.101	23.5	
6583	658.201	23.5	
6584	658.301	23.5	
6585	658.401	23.5	
6586	658.501	23.5	
6587	658.601	23.5	
6588	658.701	23.5	
6589	658.801	23.5	
6590	658.901	23.5	
6591	659.001	23.45	
6592	659.101	23.5	
6593	659.201	23.5	
6594	659.301	23.5	
6595	659.401	23.5	
6596	659.501	23.5	
6597	659.601	23.5	
6598	659.701	23.45	
6599	659.801	23.45	
6600	659.901	23.5	
6601	660.001	23.5	
6602	660.101	23.5	
6603	660.201	23.5	
6604	660.301	23.5	
6605	660.401	23.45	
6606	660.501	23.5	
6607	660.601	23.5	
6608	660.701	23.5	
6609	660.801	23.5	
6610	660.901	23.5	
6611	661.001	23.5	
6612	661.101	23.45	
6613	661.201	23.5	
6614	661.301	23.45	
6615	661.401	23.45	
6616	661.501	23.5	
6617	661.601	23.5	
6618	661.701	23.45	
6619	661.801	23.5	
6620	661.901	23.45	
6621	662.001	23.5	
6622	662.101	23.5	
6623	662.201	23.5	
6624	662.301	23.5	
6625	662.401	23.45	
6626	662.501	23.45	
6627	662.601	23.45	
6628	662.701	23.45	
6629	662.801	23.45	
6630	662.901	23.5	
6631	663.001	23.5	
6632	663.101	23.45	
6633	663.201	23.45	
6634	663.301	23.5	
6635	663.401	23.5	
6636	663.501	23.45	
6637	663.601	23.45	
6638	663.701	23.45	
6639	663.801	23.45	
6640	663.901	23.45	
6641	664.001	23.45	
6642	664.101	23.45	
6643	664.201	23.5	
6644	664.301	23.45	
6645	664.401	23.45	
6646	664.501	23.45	
6647	664.601	23.45	
6648	664.701	23.45	
6649	664.801	23.45	
6650	664.901	23.45	
6651	665.001	23.45	
6652	665.101	23.45	
6653	665.201	23.45	
6654	665.301	23.45	
6655	665.401	23.45	
6656	665.501	23.45	
6657	665.601	23.45	
6658	665.701	23.45	
6659	665.801	23.45	
6660	665.901	23.45	
6661	666.001	23.45	
6662	666.101	23.45	
6663	666.201	23.45	
6664	666.301	23.45	
6665	666.401	23.45	
6666	666.501	23.45	
6667	666.601	23.45	
6668	666.701	23.45	
6669	666.801	23.45	
6670	666.901	23.45	
6671	667.001	23.45	
6672	667.101	23.45	
6673	667.201	23.45	
6674	667.301	23.45	
6675	667.401	23.4	
6676	667.501	23.45	
6677	667.601	23.45	
6678	667.701	23.45	
6679	667.801	23.45	
6680	667.901	23.45	
6681	668.001	23.45	
6682	668.101	23.45	
6683	668.201	23.45	
6684	668.301	23.45	
6685	668.401	23.45	
6686	668.501	23.45	
6687	668.601	23.45	
6688	668.701	23.45	
6689	668.801	23.4	
6690	668.901	23.45	
6691	669.001	23.45	
6692	669.101	23.45	
6693	669.201	23.45	
6694	669.301	23.45	
6695	669.401	23.45	
6696	669.501	23.45	
6697	669.601	23.45	
6698	669.701	23.4	
6699	669.801	23.4	
6700	669.901	23.4	
6701	670.001	23.45	
6702	670.101	23.45	
6703	670.201	23.4	
6704	670.301	23.4	
6705	670.401	23.4	
6706	670.501	23.45	
6707	670.601	23.4	
6708	670.701	23.4	
6709	670.801	23.4	
6710	670.901	23.4	
6711	671.001	23.4	
6712	671.101	23.4	
6713	671.201	23.4	
6714	671.301	23.4	
6715	671.401	23.4	
6716	671.501	23.4	
6717	671.601	23.4	
6718	671.701	23.4	
6719	671.801	23.4	
6720	671.901	23.45	
6721	672.001	23.4	
6722	672.101	23.45	
6723	672.201	23.4	
6724	672.301	23.4	
6725	672.401	23.4	
6726	672.501	23.4	
6727	672.601	23.4	
6728	672.701	23.4	
6729	672.801	23.4	
6730	672.901	23.4	
6731	673.001	23.4	
6732	673.101	23.4	
6733	673.201	23.4	
6734	673.301	23.4	
6735	673.401	23.4	
6736	673.501	23.4	
6737	673.601	23.4	
6738	673.701	23.4	
6739	673.801	23.4	
6740	673.901	23.4	
6741	674.001	23.4	
6742	674.101	23.4	
6743	674.201	23.4	
6744	674.301	23.4	
6745	674.401	23.35	
6746	674.501	23.4	
6747	674.601	23.4	
6748	674.701	23.4	
6749	674.801	23.4	
6750	674.901	23.4	
6751	675.001	23.4	
6752	675.101	23.4	
6753	675.201	23.4	
6754	675.301	23.4	
6755	675.401	23.4	
6756	675.501	23.4	
6757	675.601	23.4	
6758	675.701	23.4	
6759	675.801	23.4	
6760	675.901	23.4	
6761	676.001	23.4	
6762	676.101	23.4	
6763	676.201	23.4	
6764	676.301	23.4	
6765	676.401	23.4	
6766	676.501	23.4	
6767	676.601	23.4	
6768	676.701	23.4	
6769	676.801	23.4	
6770	676.901	23.4	
6771	677.001	23.4	
6772	677.101	23.4	
6773	677.201	23.4	
6774	677.301	23.4	
6775	677.401	23.4	
6776	677.501	23.4	
6777	677.601	23.35	
6778	677.701	23.35	
6779	677.801	23.4	
6780	677.901	23.35	
6781	678.001	23.4	
6782	678.101	23.4	
6783	678.201	23.35	
6784	678.301	23.35	
6785	678.401	23.35	
6786	678.501	23.35	
6787	678.601	23.35	
6788	678.701	23.35	
6789	678.801	23.4	
6790	678.901	23.35	
6791	679.001	23.35	
6792	679.101	23.35	
6793	679.201	23.4	
6794	679.301	23.35	
6795	679.401	23.4	
6796	679.501	23.35	
6797	679.601	23.35	
6798	679.701	23.35	
6799	679.801	23.4	
6800	679.901	23.4	
6801	680.001	23.4	
6802	680.101	23.4	
6803	680.201	23.35	
6804	680.301	23.35	
6805	680.401	23.35	
6806	680.501	23.35	
6807	680.601	23.35	
6808	680.701	23.35	
6809	680.801	23.35	
6810	680.901	23.35	
6811	681.001	23.35	
6812	681.101	23.35	
6813	681.201	23.35	
6814	681.301	23.35	
6815	681.401	23.35	
6816	681.501	23.35	
6817	681.601	23.35	
6818	681.701	23.35	
6819	681.801	23.35	
6820	681.901	23.35	
6821	682.001	23.35	
6822	682.101	23.35	
6823	682.201	23.35	
6824	682.301	23.35	
6825	682.401	23.35	
6826	682.501	23.35	
6827	682.601	23.35	
6828	682.701	23.35	
6829	682.801	23.35	
6830	682.901	23.35	
6831	683.001	23.35	
6832	683.101	23.35	
6833	683.201	23.35	
6834	683.301	23.35	
6835	683.401	23.35	
6836	683.501	23.35	
6837	683.601	23.35	
6838	683.701	23.35	
6839	683.801	23.35	
6840	683.901	23.35	
6841	684.001	23.35	
6842	684.101	23.35	
6843	684.201	23.3	
6844	684.301	23.35	
6845	684.401	23.35	
6846	684.501	23.3	
6847	684.601	23.3	
6848	684.701	23.3	
6849	684.801	23.3	
6850	684.901	23.3	
6851	685.001	23.3	
6852	685.101	23.3	
6853	685.201	23.3	
6854	685.301	23.3	
6855	685.401	23.25	
6856	685.501	23.3	
6857	685.601	23.25	
6858	685.701	23.25	
6859	685.801	23.25	
6860	685.901	23.25	
6861	686.001	23.25	
6862	686.101	23.25	
6863	686.201	23.25	
6864	686.301	23.25	
6865	686.401	23.25	
6866	686.501	23.25	
6867	686.601	23.25	
6868	686.701	23.2	
6869	686.801	23.25	
6870	686.901	23.2	
6871	687.001	23.2	
6872	687.101	23.25	
6873	687.201	23.2	
6874	687.301	23.2	
6875	687.401	23.2	
6876	687.501	23.2	
6877	687.601	23.2	
6878	687.701	23.2	
6879	687.801	23.15	
6880	687.901	23.2	
6881	688.001	23.2	
6882	688.101	23.15	
6883	688.201	23.2	
6884	688.301	23.15	
6885	688.401	23.2	
6886	688.501	23.15	
6887	688.601	23.15	
6888	688.701	23.15	
6889	688.801	23.15	
6890	688.901	23.15	
6891	689.001	23.15	
6892	689.101	23.15	
6893	689.201	23.15	
6894	689.301	23.1	
6895	689.401	23.15	
6896	689.501	23.1	
6897	689.601	23.1	
6898	689.701	23.1	
6899	689.801	23.1	
6900	689.901	23.1	
6901	690.001	23.1	
6902	690.101	23.1	
6903	690.201	23.1	
6904	690.301	23.1	
6905	690.401	23.1	
6906	690.501	23.1	
6907	690.601	23.1	
6908	690.701	23.1	
6909	690.801	23.1	
6910	690.901	23.1	
6911	691.001	23.1	
6912	691.101	23.1	
6913	691.201	23.1	
6914	691.301	23.1	
6915	691.401	23.1	
6916	691.501	23.1	
6917	691.601	23.15	
6918	691.701	23.1	
6919	691.801	23.1	
6920	691.901	23.1	
6921	692.001	23.15	
6922	692.101	23.15	
6923	692.201	23.15	
6924	692.301	23.15	
6925	692.401	23.15	
6926	692.501	23.1	
6927	692.601	23.15	
6928	692.701	23.15	
6929	692.801	23.15	
6930	692.901	23.15	
6931	693.001	23.15	
6932	693.101	23.1	
6933	693.201	23.15	
6934	693.301	23.15	
6935	693.401	23.15	
6936	693.501	23.15	
6937	693.601	23.15	
6938	693.701	23.1	
6939	693.801	23.15	
6940	693.901	23.15	
6941	694.001	23.15	
6942	694.101	23.15	
6943	694.201	23.15	
6944	694.301	23.15	
6945	694.401	23.15	
6946	694.501	23.15	
6947	694.601	23.15	
6948	694.701	23.15	
6949	694.801	23.15	
6950	694.901	23.15	
6951	695.001	23.15	
6952	695.101	23.15	
6953	695.201	23.15	
6954	695.301	23.15	
6955	695.401	23.15	
6956	695.501	23.15	
6957	695.601	23.15	
6958	695.701	23.15	
6959	695.801	23.15	
6960	695.901	23.15	
6961	696.001	23.15	
6962	696.101	23.15	
6963	696.201	23.15	
6964	696.301	23.15	
6965	696.401	23.15	
6966	696.501	23.15	
6967	696.601	23.15	
6968	696.701	23.15	
6969	696.801	23.15	
6970	696.901	23.15	
6971	697.001	23.15	
6972	697.101	23.15	
6973	697.201	23.15	
6974	697.301	23.15	
6975	697.401	23.15	
6976	697.501	23.15	
6977	697.601	23.15	
6978	697.701	23.15	
6979	697.801	23.15	
6980	697.901	23.15	
6981	698.001	23.15	
6982	698.101	23.15	
6983	698.201	23.15	
6984	698.301	23.15	
6985	698.401	23.15	
6986	698.501	23.15	
6987	698.601	23.15	
6988	698.701	23.15	
6989	698.801	23.15	
6990	698.901	23.15	
6991	699.001	23.15	
6992	699.101	23.15	
6993	699.201	23.15	
6994	699.301	23.15	
6995	699.401	23.15	
6996	699.501	23.15	
6997	699.601	23.15	
6998	699.701	23.15	
6999	699.801	23.15	
7000	699.901	23.15	
7001	700.001	23.15	
7002	700.101	23.15	
7003	700.201	23.15	
7004	700.301	23.15	
7005	700.401	23.15	
7006	700.501	23.15	
7007	700.601	23.15	
7008	700.701	23.2	
7009	700.801	23.15	
7010	700.901	23.2	
7011	701.001	23.15	
7012	701.101	23.2	
7013	701.201	23.15	
7014	701.301	23.15	
7015	701.401	23.15	
7016	701.501	23.15	
7017	701.601	23.15	
7018	701.701	23.15	
7019	701.801	23.15	
7020	701.901	23.15	
7021	702.001	23.15	
7022	702.101	23.15	
7023	702.201	23.15	
7024	702.301	23.15	
7025	702.401	23.15	
7026	702.501	23.15	
7027	702.601	23.15	
7028	702.701	23.15	
7029	702.801	23.15	
7030	702.901	23.15	
7031	703.001	23.15	
7032	703.101	23.15	
7033	703.201	23.15	
7034	703.301	23.15	
7035	703.401	23.15	
7036	703.501	23.15	
7037	703.601	23.1	
7038	703.701	23.15	
7039	703.801	23.15	
7040	703.901	23.15	
7041	704.001	23.15	
7042	704.101	23.15	
7043	704.201	23.15	
7044	704.301	23.15	
7045	704.401	23.15	
7046	704.501	23.15	
7047	704.601	23.15	
7048	704.701	23.15	
7049	704.801	23.15	
7050	704.901	23.15	
7051	705.001	23.15	
7052	705.101	23.15	
7053	705.201	23.15	
7054	705.301	23.15	
7055	705.401	23.15	
7056	705.501	23.15	
7057	705.601	23.15	
7058	705.701	23.15	
7059	705.801	23.15	
7060	705.901	23.15	
7061	706.001	23.15	
7062	706.101	23.15	
7063	706.201	23.15	
7064	706.301	23.15	
7065	706.401	23.15	
7066	706.501	23.15	
7067	706.601	23.15	
7068	706.701	23.15	
7069	706.801	23.15	
7070	706.901	23.15	
7071	707.001	23.15	
7072	707.101	23.15	
7073	707.201	23.15	
7074	707.301	23.15	
7075	707.401	23.15	
7076	707.501	23.15	
7077	707.601	23.15	
7078	707.701	23.15	
7079	707.801	23.15	
7080	707.901	23.15	
7081	708.001	23.15	
7082	708.101	23.15	
7083	708.201	23.15	
7084	708.301	23.15	
7085	708.401	23.15	
7086	708.501	23.15	
7087	708.601	23.15	
7088	708.701	23.15	
7089	708.801	23.15	
7090	708.901	23.15	
7091	709.001	23.15	
7092	709.101	23.15	
7093	709.201	23.15	
7094	709.301	23.15	
7095	709.401	23.15	
7096	709.501	23.15	
7097	709.601	23.15	
7098	709.701	23.15	
7099	709.801	23.15	
7100	709.901	23.15	
7101	710.001	23.15	
7102	710.101	23.15	
7103	710.201	23.15	
7104	710.301	23.15	
7105	710.401	23.15	
7106	710.501	23.1	
7107	710.601	23.15	
7108	710.701	23.15	
7109	710.801	23.1	
7110	710.901	23.15	
7111	711.001	23.15	
7112	711.101	23.15	
7113	711.201	23.15	
7114	711.301	23.1	
7115	711.401	23.15	
7116	711.501	23.15	
7117	711.601	23.15	
7118	711.701	23.15	
7119	711.801	23.15	
7120	711.901	23.15	
7121	712.001	23.15	
7122	712.101	23.15	
7123	712.201	23.15	
7124	712.301	23.15	
7125	712.401	23.15	
7126	712.501	23.15	
7127	712.601	23.15	
7128	712.701	23.15	
7129	712.801	23.15	
7130	712.901	23.15	
7131	713.001	23.1	
7132	713.101	23.15	
7133	713.201	23.15	
7134	713.301	23.15	
7135	713.401	23.15	
7136	713.501	23.15	
7137	713.601	23.15	
7138	713.701	23.15	
7139	713.801	23.15	
7140	713.901	23.15	
7141	714.001	23.15	
7142	714.101	23.15	
7143	714.201	23.1	
7144	714.301	23.1	
7145	714.401	23.15	
7146	714.501	23.15	
7147	714.601	23.15	
7148	714.701	23.15	
7149	714.801	23.15	
7150	714.901	23.1	
7151	715.001	23.1	
7152	715.101	23.1	
7153	715.201	23.15	
7154	715.301	23.15	
7155	715.401	23.1	
7156	715.501	23.1	
7157	715.601	23.1	
7158	715.701	23.1	
7159	715.801	23.1	
7160	715.901	23.1	
7161	716.001	23.1	
7162	716.101	23.2	
7163	716.201	23.15	
7164	716.301	23.1	
7165	716.401	23.1	
7166	716.501	23.1	
7167	716.601	23.1	
7168	716.701	23.1	
7169	716.801	23.1	
7170	716.901	23.1	
7171	717.001	23.15	
7172	717.101	23.1	
7173	717.201	23.15	
7174	717.301	23.1	
7175	717.401	23.1	
7176	717.501	23.1	
7177	717.601	23.15	
7178	717.701	23.1	
7179	717.801	23.1	
7180	717.901	23.1	
7181	718.001	23.1	
7182	718.101	23.1	
7183	718.201	23.1	
7184	718.301	23.1	
7185	718.401	23.1	
7186	718.501	23.1	
7187	718.601	23.1	
7188	718.701	23.1	
7189	718.801	23.1	
7190	718.901	23.1	
7191	719.001	23.1	
7192	719.101	23.1	
7193	719.201	23.1	
7194	719.301	23.1	
7195	719.401	23.1	
7196	719.501	23.1	
7197	719.601	23.1	
7198	719.701	23.1	
7199	719.801	23.1	
7200	719.901	23.1	
7201	720.001	23.1	
7202	720.101	23.1	
7203	720.201	23.1	
7204	720.301	23.1	
7205	720.401	23.1	
7206	720.501	23.1	
7207	720.601	23.1	
7208	720.701	23.1	
7209	720.801	23.1	
7210	720.901	23.1	
7211	721.001	23.1	
7212	721.101	23.1	
7213	721.201	23.1	
7214	721.301	23.1	
7215	721.401	23.1	
7216	721.501	23.1	
7217	721.601	23.1	
7218	721.701	23.1	
7219	721.801	23.1	
7220	721.901	23.1	
7221	722.001	23.1	
7222	722.101	23.05	
7223	722.201	23.1	
7224	722.301	23.1	
7225	722.401	23.1	
7226	722.501	23.1	
7227	722.601	23.1	
7228	722.701	23.1	
7229	722.801	23.1	
7230	722.901	23.1	
7231	723.001	23.05	
7232	723.101	23.1	
7233	723.201	23.1	
7234	723.301	23.1	
7235	723.401	23.1	
7236	723.501	23.1	
7237	723.601	23.1	
7238	723.701	23.1	
7239	723.801	23.05	
7240	723.901	23.05	
7241	724.001	23.05	
7242	724.101	23.1	
7243	724.201	23.1	
7244	724.301	23.1	
7245	724.401	23.1	
7246	724.501	23.1	
7247	724.601	23.05	
7248	724.701	23.1	
7249	724.801	23.05	
7250	724.901	23.1	
7251	725.001	23.1	
7252	725.101	23.1	
7253	725.201	23.05	
7254	725.301	23.1	
7255	725.401	23.1	
7256	725.501	23.05	
7257	725.601	23.05	
7258	725.701	23.05	
7259	725.801	23.05	
7260	725.901	23.1	
7261	726.001	23.05	
7262	726.101	23.05	
7263	726.201	23.05	
7264	726.301	23.05	
7265	726.401	23.05	
7266	726.501	23.05	
7267	726.601	23.1	
7268	726.701	23.1	
7269	726.801	23.05	
7270	726.901	23.05	
7271	727.001	23.05	
7272	727.101	23.05	
7273	727.201	23.05	
7274	727.301	23.05	
7275	727.401	23.1	
7276	727.501	23.1	
7277	727.601	23.1	
7278	727.701	23.1	
7279	727.801	23.1	
7280	727.901	23.1	
7281	728.001	23.1	
7282	728.101	23.1	
7283	728.201	23.1	
7284	728.301	23.1	
7285	728.401	23.1	
7286	728.501	23.1	
7287	728.601	23.15	
7288	728.701	23.15	
7289	728.801	23.15	
7290	728.901	23.15	
7291	729.001	23.15	
7292	729.101	23.15	
7293	729.201	23.15	
7294	729.301	23.15	
7295	729.401	23.15	
7296	729.501	23.1	
7297	729.601	23.15	
7298	729.701	23.15	
7299	729.801	23.15	
7300	729.901	23.15	
7301	730.001	23.15	
7302	730.101	23.15	
7303	730.201	23.15	
7304	730.301	23.15	
7305	730.401	23.15	
7306	730.501	23.15	
7307	730.601	23.15	
7308	730.701	23.15	
7309	730.801	23.15	
7310	730.901	23.15	
7311	731.001	23.15	
7312	731.101	23.15	
7313	731.201	23.15	
7314	731.301	23.15	
7315	731.401	23.15	
7316	731.501	23.15	
7317	731.601	23.15	
7318	731.701	23.15	
7319	731.801	23.15	
7320	731.901	23.15	
7321	732.001	23.15	
7322	732.101	23.15	
7323	732.201	23.15	
7324	732.301	23.15	
7325	732.401	23.15	
7326	732.501	23.15	
7327	732.601	23.15	
7328	732.701	23.15	
7329	732.801	23.15	
7330	732.901	23.15	
7331	733.001	23.15	
7332	733.101	23.15	
7333	733.201	23.15	
7334	733.301	23.15	
7335	733.401	23.15	
7336	733.501	23.15	
7337	733.601	23.1	
7338	733.701	23.1	
7339	733.801	23.15	
7340	733.901	23.1	
7341	734.001	23.1	
7342	734.101	23.1	
7343	734.201	23.1	
7344	734.301	23.1	
7345	734.401	23.1	
7346	734.501	23.1	
7347	734.601	23.1	
7348	734.701	23.1	
7349	734.801	23.1	
7350	734.901	23.1	
7351	735.001	23.1	
7352	735.101	23.1	
7353	735.201	23.1	
7354	735.301	23.1	
7355	735.401	23.1	
7356	735.501	23.1	
7357	735.601	23.1	
7358	735.701	23.1	
7359	735.801	23.05	
7360	735.901	23.1	
7361	736.001	23.1	
7362	736.101	23.1	
7363	736.201	23.05	
7364	736.301	23.05	
7365	736.401	23.1	
7366	736.501	23.1	
7367	736.601	23.1	
7368	736.701	23.1	
7369	736.801	23.1	
7370	736.901	23.1	
7371	737.001	23.05	
7372	737.101	23.1	
7373	737.201	23.1	
7374	737.301	23.05	
7375	737.401	23.05	
7376	737.501	23.05	
7377	737.601	23.05	
7378	737.701	23.05	
7379	737.801	23.1	
7380	737.901	23.1	
7381	738.001	23.1	
7382	738.101	23.1	
7383	738.201	23.05	
7384	738.301	23.1	
7385	738.401	23.1	
7386	738.501	23.1	
7387	738.601	23.1	
7388	738.701	23.1	
7389	738.801	23.05	
7390	738.901	23.1	
7391	739.001	23.1	
7392	739.101	23.1	
7393	739.201	23.1	
7394	739.301	23.1	
7395	739.401	23.05	
7396	739.501	23.05	
7397	739.601	23.05	
7398	739.701	23.05	
7399	739.801	23.05	
7400	739.901	23.05	
7401	740.001	23.05	
7402	740.101	23.05	
7403	740.201	23.05	
7404	740.301	23.05	
7405	740.401	23.05	
7406	740.501	23.05	
7407	740.601	23.05	
7408	740.701	23.05	
7409	740.801	23.05	
7410	740.901	23.1	
7411	741.001	23.05	
7412	741.101	23.05	
7413	741.201	23.05	
7414	741.301	23.05	
7415	741.401	23.05	
7416	741.501	23.05	
7417	741.601	23.05	
7418	741.701	23.05	
7419	741.801	23.05	
7420	741.901	23	
7421	742.001	23	
7422	742.101	23.05	
7423	742.201	23	
7424	742.301	23.05	
7425	742.401	23	
7426	742.501	23.05	
7427	742.601	23	
7428	742.701	23.05	
7429	742.801	23	
7430	742.901	23.05	
7431	743.001	23	
7432	743.101	23	
7433	743.201	23	
7434	743.301	23	
7435	743.401	23	
7436	743.501	23	
7437	743.601	23	
7438	743.701	23	
7439	743.801	23	
7440	743.901	23.05	
7441	744.001	23	
7442	744.101	23	
7443	744.201	23	
7444	744.301	23	
7445	744.401	23	
7446	744.501	23	
7447	744.601	23	
7448	744.701	23	
7449	744.801	23	
7450	744.901	23	
7451	745.001	23	
7452	745.101	23	
7453	745.201	23	
7454	745.301	23	
7455	745.401	23	
7456	745.501	23	
7457	745.601	23	
7458	745.701	23	
7459	745.801	23	
7460	745.901	23	
7461	746.001	23	
7462	746.101	23	
7463	746.201	23	
7464	746.301	23	
7465	746.401	23	
7466	746.501	23	
7467	746.601	23	
7468	746.701	23	
7469	746.801	23	
7470	746.901	23	
7471	747.001	23	
7472	747.101	22.95	
7473	747.201	23	
7474	747.301	23	
7475	747.401	23	
7476	747.501	23	
7477	747.601	22.95	
7478	747.701	23	
7479	747.801	22.95	
7480	747.901	23	
7481	748.001	23	
7482	748.101	23	
7483	748.201	23	
7484	748.301	22.95	
7485	748.401	22.95	
7486	748.501	23	
7487	748.601	23	
7488	748.701	23	
7489	748.801	22.95	
7490	748.901	23	
7491	749.001	23	
7492	749.101	22.95	
7493	749.201	23	
7494	749.301	22.95	
7495	749.401	22.95	
7496	749.501	23	
7497	749.601	23	
7498	749.701	22.95	
7499	749.801	22.95	
7500	749.901	22.95	
7501	750.001	22.95	
7502	750.101	23	
7503	750.201	22.95	
7504	750.301	22.95	
7505	750.401	22.95	
7506	750.501	23	
7507	750.601	22.95	
7508	750.701	23	
7509	750.801	22.95	
7510	750.901	22.95	
7511	751.001	22.95	
7512	751.101	22.95	
7513	751.201	22.95	
7514	751.301	22.95	
7515	751.401	22.95	
7516	751.501	22.95	
7517	751.601	22.95	
7518	751.701	22.95	
7519	751.801	22.95	
7520	751.901	22.95	
7521	752.001	22.95	
7522	752.101	22.95	
7523	752.201	22.95	
7524	752.301	22.95	
7525	752.401	22.95	
7526	752.501	22.95	
7527	752.601	22.95	
7528	752.701	22.95	
7529	752.801	22.95	
7530	752.901	22.95	
7531	753.001	22.95	
7532	753.101	22.95	
7533	753.201	22.95	
7534	753.301	22.95	
7535	753.401	22.95	
7536	753.501	22.95	
7537	753.601	22.95	
7538	753.701	22.95	
7539	753.801	22.95	
7540	753.901	23	
7541	754.001	22.95	
7542	754.101	22.95	
7543	754.201	22.95	
7544	754.301	22.95	
7545	754.401	22.95	
7546	754.501	22.95	
7547	754.601	22.95	
7548	754.701	22.95	
7549	754.801	22.95	
7550	754.901	22.95	
7551	755.001	22.95	
7552	755.101	22.95	
7553	755.201	22.95	
7554	755.301	22.95	
7555	755.401	22.95	
7556	755.501	22.95	
7557	755.601	22.95	
7558	755.701	22.95	
7559	755.801	22.95	
7560	755.901	22.95	
7561	756.001	22.95	
7562	756.101	22.95	
7563	756.201	22.95	
7564	756.301	22.95	
7565	756.401	22.95	
7566	756.501	22.9	
7567	756.601	22.95	
7568	756.701	22.9	
7569	756.801	22.95	
7570	756.901	22.95	
7571	757.001	22.95	
7572	757.101	22.95	
7573	757.201	22.95	
7574	757.301	22.95	
7575	757.401	22.95	
7576	757.501	22.95	
7577	757.601	22.95	
7578	757.701	22.95	
7579	757.801	22.9	
7580	757.901	22.95	
7581	758.001	23	
7582	758.101	22.95	
7583	758.201	22.9	
7584	758.301	22.9	
7585	758.401	22.95	
7586	758.501	22.9	
7587	758.601	22.9	
7588	758.701	22.95	
7589	758.801	22.9	
7590	758.901	22.9	
7591	759.001	22.9	
7592	759.101	22.9	
7593	759.201	22.9	
7594	759.301	22.9	
7595	759.401	22.9	
7596	759.501	22.95	
7597	759.601	22.9	
7598	759.701	22.9	
7599	759.801	22.9	
7600	759.901	22.9	
7601	760.001	22.9	
7602	760.101	22.9	
7603	760.201	22.9	
7604	760.301	22.9	
7605	760.401	22.9	
7606	760.501	23	
7607	760.601	22.9	
7608	760.701	22.85	
7609	760.801	22.9	
7610	760.901	22.9	
7611	761.001	22.9	
7612	761.101	22.9	
7613	761.201	22.9	
7614	761.301	22.9	
7615	761.401	22.9	
7616	761.501	22.9	
7617	761.601	22.9	
7618	761.701	22.9	
7619	761.801	22.9	
7620	761.901	22.9	
7621	762.001	22.9	
7622	762.101	22.9	
7623	762.201	22.9	
7624	762.301	22.9	
7625	762.401	22.9	
7626	762.501	22.9	
7627	762.601	22.9	
7628	762.701	22.9	
7629	762.801	22.9	
7630	762.901	22.9	
7631	763.001	22.9	
7632	763.101	22.9	
7633	763.201	22.9	
7634	763.301	22.9	
7635	763.401	22.9	
7636	763.501	22.9	
7637	763.601	22.85	
7638	763.701	22.9	
7639	763.801	22.85	
7640	763.901	22.9	
7641	764.001	22.9	
7642	764.101	22.9	
7643	764.201	22.9	
7644	764.301	22.85	
7645	764.401	22.8	
7646	764.501	22.85	
7647	764.601	22.9	
7648	764.701	22.9	
7649	764.801	22.85	
7650	764.901	22.9	
7651	765.001	22.85	
7652	765.101	22.9	
7653	765.201	22.9	
7654	765.301	22.85	
7655	765.401	22.9	
7656	765.501	22.85	
7657	765.601	22.85	
7658	765.701	22.9	
7659	765.801	22.9	
7660	765.901	22.85	
7661	766.001	22.85	
7662	766.101	22.9	
7663	766.201	22.9	
7664	766.301	22.85	
7665	766.401	22.85	
7666	766.501	22.9	
7667	766.601	22.85	
7668	766.701	22.85	
7669	766.801	22.85	
7670	766.901	22.85	
7671	767.001	22.85	
7672	767.101	22.85	
7673	767.201	22.9	
7674	767.301	22.85	
7675	767.401	22.85	
7676	767.501	22.85	
7677	767.601	22.9	
7678	767.701	22.9	
7679	767.801	22.85	
7680	767.901	22.85	
7681	768.001	22.85	
7682	768.101	22.85	
7683	768.201	22.85	
7684	768.301	22.85	
7685	768.401	22.85	
7686	768.501	22.85	
7687	768.601	22.85	
7688	768.701	22.85	
7689	768.801	22.85	
7690	768.901	22.85	
7691	769.001	22.85	
7692	769.101	22.85	
7693	769.201	22.85	
7694	769.301	22.85	
7695	769.401	22.85	
7696	769.501	22.85	
7697	769.601	22.85	
7698	769.701	22.85	
7699	769.801	22.8	
7700	769.901	22.85	
7701	770.001	22.85	
7702	770.101	22.85	
7703	770.201	22.85	
7704	770.301	22.85	
7705	770.401	22.85	
7706	770.501	22.85	
7707	770.601	22.85	
7708	770.701	22.85	
7709	770.801	22.85	
7710	770.901	22.85	
7711	771.001	22.85	
7712	771.101	22.85	
7713	771.201	22.85	
7714	771.301	22.85	
7715	771.401	22.85	
7716	771.501	22.85	
7717	771.601	22.8	
7718	771.701	22.8	
7719	771.801	22.85	
7720	771.901	22.85	
7721	772.001	22.85	
7722	772.101	22.8	
7723	772.201	22.85	
7724	772.301	22.85	
7725	772.401	22.85	
7726	772.501	22.85	
7727	772.601	22.85	
7728	772.701	22.8	
7729	772.801	22.85	
7730	772.901	22.8	
7731	773.001	22.85	
7732	773.101	22.8	
7733	773.201	22.85	
7734	773.301	22.8	
7735	773.401	22.85	
7736	773.501	22.85	
7737	773.601	22.8	
7738	773.701	22.8	
7739	773.801	22.8	
7740	773.901	22.85	
7741	774.001	22.8	
7742	774.101	22.85	
7743	774.201	22.8	
7744	774.301	22.85	
7745	774.401	22.8	
7746	774.501	22.8	
7747	774.601	22.8	
7748	774.701	22.85	
7749	774.801	22.8	
7750	774.901	22.8	
7751	775.001	22.8	
7752	775.101	22.8	
7753	775.201	22.8	
7754	775.301	22.85	
7755	775.401	22.8	
7756	775.501	22.8	
7757	775.601	22.8	
7758	775.701	22.8	
7759	775.801	22.8	
7760	775.901	22.8	
7761	776.001	22.8	
7762	776.101	22.8	
7763	776.201	22.8	
7764	776.301	22.8	
7765	776.401	22.8	
7766	776.501	22.8	
7767	776.601	22.8	
7768	776.701	22.8	
7769	776.801	22.8	
7770	776.901	22.8	
7771	777.001	22.8	
7772	777.101	22.8	
7773	777.201	22.8	
7774	777.301	22.8	
7775	777.401	22.8	
7776	777.501	22.8	
7777	777.601	22.8	
7778	777.701	22.8	
7779	777.801	22.8	
7780	777.901	22.8	
7781	778.001	22.8	
7782	778.101	22.8	
7783	778.201	22.8	
7784	778.301	22.8	
7785	778.401	22.8	
7786	778.501	22.8	
7787	778.601	22.8	
7788	778.701	22.8	
7789	778.801	22.8	
7790	778.901	22.8	
7791	779.001	22.8	
7792	779.101	22.8	
7793	779.201	22.8	
7794	779.301	22.8	
7795	779.401	22.8	
7796	779.501	22.8	
7797	779.601	22.8	
7798	779.701	22.75	
7799	779.801	22.8	
7800	779.901	22.8	
7801	780.001	22.8	
7802	780.101	22.8	
7803	780.201	22.8	
7804	780.301	22.75	
7805	780.401	22.75	
7806	780.501	22.75	
7807	780.601	22.75	
7808	780.701	22.75	
7809	780.801	22.75	
7810	780.901	22.8	
7811	781.001	22.8	
7812	781.101	22.75	
7813	781.201	22.75	
7814	781.301	22.75	
7815	781.401	22.8	
7816	781.501	22.8	
7817	781.601	22.8	
7818	781.701	22.8	
7819	781.801	22.8	
7820	781.901	22.75	
7821	782.001	22.7	
7822	782.101	22.75	
7823	782.201	22.8	
7824	782.301	22.75	
7825	782.401	22.75	
7826	782.501	22.75	
7827	782.601	22.8	
7828	782.701	22.75	
7829	782.801	22.8	
7830	782.901	22.75	
9071	907.01	22.25	
9072	907.11	22.25	
9073	907.21	22.25	
9074	907.31	22.25	
9075	907.41	22.25	
9076	907.51	22.25	
9077	907.61	22.25	
9078	907.71	22.25	
9079	907.81	22.25	
9080	907.91	22.25	
9081	908.01	22.25	
9082	908.11	22.25	
9083	908.21	22.25	
9084	908.31	22.3	
9085	908.41	22.25	
9086	908.51	22.25	
9087	908.61	22.25	
9088	908.71	22.25	
9089	908.81	22.25	
9090	908.91	22.25	
9091	909.01	22.25	
9092	909.11	22.25	
9093	909.21	22.25	
9094	909.31	22.25	
9095	909.41	22.25	
9096	909.51	22.25	
9097	909.61	22.25	
9098	909.71	22.25	
9099	909.81	22.25	
9100	909.91	22.25	
9101	910.01	22.25	
9102	910.11	22.25	
9103	910.21	22.25	
9104	910.31	22.25	
9105	910.41	22.25	
9106	910.51	22.25	
9107	910.61	22.25	
9108	910.71	22.25	
9109	910.81	22.25	
9110	910.91	22.25	
9111	911.01	22.25	
9112	911.11	22.25	
9113	911.21	22.25	
9114	911.31	22.25	
9115	911.41	22.25	
9116	911.501	22.25	
9117	911.61	22.25	
9118	911.71	22.25	
9119	911.81	22.25	
9120	911.91	22.25	
9121	912.001	22.25	
9122	912.11	22.25	
9123	912.21	22.25	
9124	912.31	22.25	
9125	912.41	22.25	
9126	912.501	22.25	
9127	912.61	22.25	
9128	912.711	22.25	
9129	912.81	22.25	
9130	912.91	22.25	
9131	913.001	22.25	
9132	913.11	22.25	
9133	913.211	22.25	
9134	913.31	22.25	
9135	913.41	22.3	
9136	913.501	22.25	
9137	913.61	22.25	
9138	913.711	22.25	
9139	913.81	22.25	
9140	913.91	22.25	
9141	914.001	22.25	
9142	914.11	22.25	
9143	914.211	22.25	
9144	914.31	22.25	
9145	914.41	22.25	
9146	914.501	22.25	
9147	914.61	22.25	
9148	914.711	22.25	
9149	914.81	22.25	
9150	914.91	22.25	
9151	915.001	22.25	
9152	915.11	22.25	
9153	915.212	22.25	
9154	915.31	22.25	
9155	915.41	22.25	
9156	915.501	22.25	
9157	915.61	22.25	
9158	915.711	22.25	
9159	915.81	22.25	
9160	915.91	22.25	
9161	916.001	22.25	
9162	916.11	22.25	
9163	916.211	22.25	
9164	916.31	22.25	
9165	916.41	22.25	
9166	916.501	22.25	
9167	916.61	22.25	
9168	916.711	22.25	
9169	916.801	22.3	
9170	916.91	22.25	
9171	917.001	22.25	
9172	917.11	22.25	
9173	917.211	22.25	
9174	917.301	22.25	
9175	917.41	22.25	
9176	917.501	22.25	
9177	917.61	22.25	
9178	917.711	22.25	
9179	917.801	22.25	
9180	917.91	22.25	
9181	918.001	22.25	
9182	918.11	22.25	
9183	918.211	22.25	
9184	918.301	22.25	
9185	918.41	22.25	
9186	918.501	22.25	
9187	918.61	22.25	
9188	918.711	22.25	
9189	918.801	22.25	
9190	918.91	22.25	
9191	919.001	22.25	
9192	919.11	22.25	
9193	919.211	22.25	
9194	919.301	22.25	
9195	919.41	22.25	
9196	919.501	22.25	
9197	919.61	22.25	
9198	919.711	22.25	
9199	919.801	22.25	
9200	919.91	22.25	
9201	920.001	22.25	
9202	920.11	22.25	
9203	920.211	22.25	
9204	920.301	22.25	
9205	920.41	22.25	
9206	920.501	22.25	
9207	920.61	22.25	
9208	920.711	22.25	
9209	920.801	22.25	
9210	920.91	22.25	
9211	921.001	22.25	
9212	921.11	22.25	
9213	921.211	22.25	
9214	921.301	22.25	
9215	921.41	22.25	
9216	921.501	22.25	
9217	921.61	22.25	
9218	921.711	22.25	
9219	921.801	22.2	
9220	921.91	22.25	
9221	922.001	22.25	
9222	922.101	22.25	
9223	922.211	22.25	
9224	922.301	22.25	
9225	922.41	22.25	
9226	922.501	22.25	
9227	922.601	22.25	
9228	922.711	22.25	
9229	922.801	22.25	
9230	922.91	22.25	
9231	923.001	22.25	
9232	923.101	22.25	
9233	923.211	22.2	
9234	923.301	22.25	
9235	923.41	22.2	
9236	923.501	22.25	
9237	923.601	22.25	
9238	923.711	22.2	
9239	923.801	22.25	
9240	923.91	22.25	
9241	924.001	22.25	
9242	924.101	22.25	
9243	924.211	22.2	
9244	924.301	22.2	
9245	924.41	22.2	
9246	924.501	22.2	
9247	924.601	22.25	
9248	924.711	22.2	
9249	924.801	22.2	
9250	924.91	22.2	
9251	925.001	22.2	
9252	925.101	22.25	
9253	925.211	22.2	
9254	925.301	22.2	
9255	925.41	22.2	
9256	925.501	22.25	
9257	925.601	22.2	
9258	925.711	22.2	
9259	925.801	22.25	
9260	925.91	22.2	
9261	926.001	22.25	
9262	926.101	22.2	
9263	926.211	22.2	
9264	926.301	22.2	
9265	926.41	22.2	
9266	926.501	22.2	
9267	926.601	22.2	
9268	926.711	22.2	
9269	926.801	22.2	
9270	926.91	22.2	
9271	927.001	22.2	
9272	927.101	22.2	
9273	927.211	22.2	
9274	927.301	22.2	
9275	927.401	22.2	
9276	927.501	22.25	
9277	927.601	22.25	
9278	927.711	22.25	
9279	927.801	22.25	
9280	927.901	22.2	
9281	928.001	22.2	
9282	928.101	22.2	
9283	928.211	22.15	
9284	928.301	22.2	
9285	928.401	22.25	
9286	928.501	22.2	
9287	928.601	22.15	
9288	928.711	22.2	
9289	928.801	22.2	
9290	928.901	22.2	
9291	929.001	22.2	
9292	929.101	22.2	
9293	929.211	22.25	
9294	929.301	22.2	
9295	929.401	22.2	
9296	929.501	22.2	
9297	929.601	22.2	
9298	929.711	22.2	
9299	929.801	22.2	
9300	929.901	22.2	
9301	930.001	22.2	
9302	930.101	22.2	
9303	930.211	22.2	
9304	930.301	22.2	
9305	930.401	22.2	
9306	930.501	22.2	
9307	930.601	22.25	
9308	930.711	22.2	
9309	930.801	22.2	
9310	930.901	22.2	
9311	931.001	22.2	
9312	931.101	22.2	
9313	931.211	22.2	
9314	931.301	22.2	
9315	931.401	22.2	
9316	931.501	22.2	
9317	931.601	22.2	
9318	931.711	22.2	
9319	931.801	22.2	
9320	931.901	22.2	
9624	962.302	22	
9625	962.402	22	
9626	962.502	22	
9627	962.602	22	
9628	962.702	22	
9629	962.802	22	
9630	962.902	22	
9631	963.002	22	
9632	963.102	22	
9633	963.202	22	
9634	963.302	22	
9635	963.402	22	
9636	963.502	22	
9637	963.602	22	
9638	963.702	22	
9639	963.802	22	
9640	963.902	22	
9641	964.002	22	
9642	964.102	22	
9643	964.202	22	
9644	964.302	22	
9645	964.405	22	
9646	964.502	22	
9647	964.602	22	
9648	964.702	22	
9649	964.802	22	
9650	964.902	22	
9651	965.002	22	
9652	965.102	22	
9653	965.202	22	
9654	965.302	22	
9655	965.402	22	
9656	965.502	21.95	
9657	965.602	22	
9658	965.702	22	
9659	965.802	22	
9660	965.902	22	
9661	966.003	22	
9662	966.102	21.95	
9663	966.202	22	
9664	966.302	22	
9665	966.402	21.95	
9666	966.503	21.95	
9667	966.602	22	
9668	966.702	22	
9669	966.802	21.95	
9670	966.902	22	
9671	967.003	22	
9672	967.102	21.95	
9673	967.202	21.95	
9674	967.302	21.95	
9675	967.402	22	
9676	967.503	21.95	
9677	967.602	22	
9678	967.702	21.95	
9679	967.802	22	
9680	967.902	21.95	
9681	968.003	22	
9682	968.102	22	
9683	968.202	22	
9684	968.302	21.95	
9685	968.402	22	
9686	968.503	21.95	
9687	968.602	22	
9688	968.702	21.95	
9689	968.802	22	
9690	968.902	21.95	
9691	969.003	22	
9692	969.102	22	
9693	969.202	21.95	
9694	969.302	21.95	
9695	969.402	21.95	
9696	969.503	22	
9697	969.602	21.95	
9698	969.702	21.95	
9699	969.802	21.95	
9700	969.902	21.95	
9701	970.003	21.95	
9702	970.102	21.95	
9703	970.202	21.95	
9704	970.302	22	
9705	970.402	21.95	
9706	970.503	22	
9707	970.602	21.95	
9708	970.702	22	
9709	970.802	21.95	
9710	970.902	22	
9711	971.003	21.95	
9712	971.102	21.95	
9713	971.202	21.95	
9714	971.303	21.95	
9715	971.402	21.95	
9716	971.503	21.95	
9717	971.602	21.95	
9718	971.702	22	
9719	971.803	21.95	
9720	971.902	21.95	
9721	972.003	21.95	
9722	972.102	21.95	
9723	972.202	21.95	
9724	972.303	22	
9725	972.402	21.95	
9726	972.503	22	
9727	972.602	21.95	
9728	972.702	21.95	
9729	972.803	21.95	
9730	972.902	21.95	
9731	973.003	21.95	
9732	973.102	21.95	
9733	973.202	22	
9734	973.303	22	
9735	973.402	21.95	
9736	973.503	22	
9737	973.602	21.95	
9738	973.702	22	
9739	973.803	21.95	
9740	973.902	22	
9741	974.003	22	
9742	974.102	22	
9743	974.202	22	
9744	974.303	22	
9745	974.402	21.95	
9746	974.503	22	
9747	974.602	22	
9748	974.702	22	
9749	974.803	22	
9750	974.902	22	
9751	975.003	22	
9752	975.102	22	
9753	975.202	22	
9754	975.303	22	
9755	975.402	22	
9756	975.503	22	
9757	975.602	22	
9758	975.702	21.95	
9759	975.803	22	
9760	975.902	22	
9761	976.003	22	
9762	976.102	22	
9763	976.202	22	
9764	976.303	22	
9765	976.402	22	
9766	976.503	22	
9767	976.603	22	
9768	976.702	22	
9769	976.803	22	
9770	976.902	21.95	
9771	977.003	22	
9772	977.103	22	
9773	977.202	22	
9774	977.303	22	
9775	977.402	21.95	
9776	977.503	22	
9777	977.603	22	
9778	977.702	22	
9779	977.803	22	
9780	977.902	21.95	
9781	978.003	22	
9782	978.103	22	
9783	978.202	22	
9784	978.303	22	
9785	978.402	22	
9786	978.503	22	
9787	978.603	22	
9788	978.702	22	
9789	978.803	21.95	
9790	978.902	21.95	
9791	979.003	22	
9792	979.103	22	
9793	979.202	22	
9794	979.303	22	
9795	979.402	22	
9796	979.503	22	
9797	979.603	22	
9798	979.702	22	
9799	979.803	22	
9800	979.902	22	
9801	980.003	22	
9802	980.103	22	
9803	980.202	22	
9804	980.303	22	
9805	980.402	22	
9806	980.503	22	
9807	980.603	22	
9808	980.702	22	
9809	980.803	22	
9810	980.902	22	
9811	981.003	22	
9812	981.103	22	
9813	981.202	22	
9814	981.303	22	
9815	981.403	22	
9816	981.503	22	
9817	981.603	22	
9818	981.702	22	
9819	981.803	22	
9820	981.903	22	
9821	982.003	22	
9822	982.103	22	
9823	982.202	22	
9824	982.303	22	
9825	982.403	22	
9826	982.503	22	
9827	982.603	22	
9828	982.702	22	
9829	982.803	22	
9830	982.903	22	
9831	983.003	22	
9832	983.103	22	
9833	983.202	22	
9834	983.303	22	
9835	983.403	22	
9836	983.503	22	
10141	1014.004	21.95	
10142	1014.104	21.95	
10143	1014.204	21.9	
10144	1014.304	21.9	
10145	1014.404	21.9	
10146	1014.504	21.9	
10147	1014.604	21.9	
10148	1014.704	21.95	
10149	1014.804	21.95	
10150	1014.904	21.95	
10151	1015.004	21.9	
10152	1015.104	21.95	
10153	1015.204	21.95	
10154	1015.304	21.95	
10155	1015.404	21.95	
10156	1015.504	21.9	
10157	1015.607	21.9	
10158	1015.704	21.95	
10159	1015.804	21.95	
10160	1015.904	21.95	
10161	1016.004	21.95	
10162	1016.104	21.95	
10163	1016.204	21.95	
10164	1016.304	21.95	
10165	1016.404	21.9	
10166	1016.504	21.95	
10167	1016.604	21.95	
10168	1016.704	21.95	
10169	1016.804	21.95	
10170	1016.904	21.95	
10171	1017.004	21.95	
10172	1017.104	21.95	
10173	1017.204	21.95	
10174	1017.304	21.95	
10175	1017.404	21.95	
10176	1017.504	21.95	
10177	1017.604	21.95	
10178	1017.704	21.95	
10179	1017.804	21.95	
10180	1017.904	21.95	
10181	1018.004	21.95	
10182	1018.104	21.95	
10183	1018.204	21.95	
10184	1018.304	21.95	
10185	1018.404	21.95	
10186	1018.504	21.95	
10187	1018.604	21.95	
10188	1018.704	21.95	
10189	1018.804	21.95	
10190	1018.904	21.95	
10191	1019.004	21.95	
10192	1019.104	21.95	
10193	1019.204	21.95	
10194	1019.304	21.95	
10195	1019.404	21.95	
10196	1019.504	21.95	
10197	1019.604	21.95	
10198	1019.704	21.95	
10199	1019.804	21.95	
10200	1019.904	21.95	
10201	1020.005	21.95	
10202	1020.104	21.95	
10203	1020.204	21.95	
10204	1020.304	21.95	
10205	1020.404	21.95	
10206	1020.505	21.95	
10207	1020.604	21.95	
10208	1020.704	21.95	
10209	1020.804	21.95	
10210	1020.904	21.95	
10211	1021.005	21.95	
10212	1021.104	21.9	
10213	1021.204	21.95	
10214	1021.304	21.95	
10215	1021.404	21.95	
10216	1021.505	21.95	
10217	1021.604	21.95	
10218	1021.704	21.95	
10219	1021.804	21.95	
10220	1021.904	21.95	
10221	1022.005	21.95	
10222	1022.104	21.95	
10223	1022.204	21.95	
10224	1022.304	21.95	
10225	1022.404	21.95	
10226	1022.505	21.95	
10227	1022.604	21.95	
10228	1022.704	21.95	
10229	1022.804	21.95	
10230	1022.904	21.95	
10231	1023.005	21.95	
10232	1023.104	21.95	
10233	1023.204	21.95	
10234	1023.304	21.95	
10235	1023.404	21.95	
10236	1023.505	21.95	
10237	1023.604	21.95	
10238	1023.704	21.95	
10239	1023.804	21.95	
10240	1023.904	21.9	
10241	1024.005	21.95	
10242	1024.104	21.95	
10243	1024.204	21.9	
10244	1024.304	21.9	
10245	1024.404	21.95	
10246	1024.505	21.95	
10247	1024.604	21.95	
10248	1024.704	21.95	
10249	1024.804	21.95	
10250	1024.904	21.9	
10251	1025.005	21.95	
10252	1025.104	21.95	
10253	1025.204	21.95	
10254	1025.305	21.95	
10255	1025.404	21.9	
10256	1025.505	21.95	
10257	1025.604	21.95	
10258	1025.704	21.95	
10259	1025.805	21.95	
10260	1025.904	21.95	
10261	1026.005	21.95	
10262	1026.104	21.95	
10263	1026.204	21.95	
10264	1026.305	21.95	
10265	1026.404	21.95	
10266	1026.505	21.95	
10267	1026.604	21.95	
10268	1026.704	21.95	
10269	1026.805	21.9	
10270	1026.904	21.95	
10271	1027.005	21.95	
10272	1027.104	21.95	
10273	1027.204	21.95	
10274	1027.305	21.95	
10275	1027.404	21.95	
10276	1027.505	21.95	
10277	1027.604	21.95	
10278	1027.704	21.95	
10279	1027.805	21.95	
10280	1027.904	21.95	
10281	1028.005	21.95	
10282	1028.104	21.95	
10283	1028.204	21.95	
10284	1028.305	21.95	
10285	1028.404	21.95	
10286	1028.505	21.95	
10287	1028.604	21.95	
10288	1028.704	21.95	
10289	1028.805	21.95	
10290	1028.904	21.95	
10291	1029.005	21.95	
10292	1029.104	21.95	
10293	1029.204	21.95	
10294	1029.305	21.95	
10295	1029.404	21.95	
10296	1029.505	21.95	
10297	1029.604	21.95	
10298	1029.704	21.95	
10299	1029.805	21.95	
10300	1029.904	21.95	
10301	1030.005	21.95	
10302	1030.104	21.95	
10303	1030.204	21.95	
10304	1030.305	21.95	
10305	1030.404	21.95	
10306	1030.505	21.95	
10307	1030.605	21.95	
10308	1030.704	21.95	
10309	1030.805	21.95	
10310	1030.904	21.95	
10311	1031.005	21.95	
10312	1031.105	21.95	
10313	1031.204	21.95	
10314	1031.305	21.95	
10315	1031.404	21.95	
10316	1031.505	21.95	
10317	1031.605	21.95	
10318	1031.704	21.95	
10319	1031.805	21.95	
10320	1031.904	21.95	
10321	1032.005	21.95	
10322	1032.105	21.9	
10323	1032.204	21.95	
10324	1032.305	21.95	
10325	1032.404	21.95	
10326	1032.505	21.95	
10327	1032.605	21.95	
10328	1032.704	21.95	
10329	1032.805	21.95	
10330	1032.904	21.95	
10331	1033.005	21.95	
10332	1033.105	21.95	
10333	1033.204	21.95	
10334	1033.305	21.95	
10335	1033.404	21.9	
10336	1033.505	21.95	
10337	1033.605	21.95	
10338	1033.704	21.95	
10339	1033.805	21.95	
10340	1033.904	21.95	
10341	1034.005	21.95	
10342	1034.105	21.95	
10343	1034.204	21.95	
10344	1034.305	21.95	
10345	1034.404	21.95	
10346	1034.505	21.95	
10347	1034.605	21.95	
10348	1034.704	21.95	
10349	1034.805	21.95	
10350	1034.904	21.95	
10351	1035.005	21.95	
10352	1035.105	21.95	
10353	1035.204	21.95	
10354	1035.305	21.95	
10355	1035.405	21.95	
10356	1035.505	21.95	
10357	1035.605	21.95	
10358	1035.704	21.95	
10359	1035.805	21.95	
10360	1035.905	21.9	
10361	1036.005	21.95	
10362	1036.105	21.95	
10363	1036.204	21.95	
10364	1036.305	21.95	
10365	1036.405	21.95	
10366	1036.505	21.95	
10367	1036.605	21.95	
10368	1036.704	21.9	
10369	1036.805	21.95	
10370	1036.905	21.9	
10371	1037.005	21.95	
10372	1037.105	21.95	
10373	1037.204	21.9	
10374	1037.305	21.95	
10375	1037.405	21.95	
10376	1037.505	21.95	
10377	1037.605	21.95	
10378	1037.704	21.95	
10379	1037.805	21.95	
10380	1037.905	21.95	
10381	1038.005	21.95	
10382	1038.105	21.95	
10383	1038.204	21.9	
10384	1038.305	21.95	
10385	1038.405	21.95	
10386	1038.505	21.9	
10387	1038.605	21.9	
10388	1038.704	21.9	
10389	1038.805	21.9	
10390	1038.905	21.95	
10391	1039.005	21.95	
10392	1039.105	21.95	
10393	1039.204	21.9	
10394	1039.305	21.9	
10395	1039.405	21.9	
10396	1039.505	21.9	
10397	1039.605	21.95	
10398	1039.704	21.9	
10399	1039.805	21.9	
10400	1039.905	21.9	
10401	1040.005	21.9	
10402	1040.105	21.9	
10403	1040.204	21.9	
10404	1040.305	21.95	
10405	1040.405	21.9	
10406	1040.505	21.9	
10407	1040.605	21.9	
10408	1040.705	21.9	
10409	1040.805	21.9	
10410	1040.905	21.9	
10411	1041.005	21.9	
10412	1041.105	21.9	
10413	1041.205	21.9	
10414	1041.305	21.9	
10415	1041.405	21.9	
10416	1041.505	21.9	
10417	1041.605	21.9	
10418	1041.709	21.9	
10419	1041.805	21.9	
10420	1041.905	21.9	
10421	1042.005	21.9	
10422	1042.105	21.9	
10423	1042.205	21.9	
10424	1042.305	21.9	
10425	1042.405	21.9	
10426	1042.505	21.9	
10427	1042.605	21.9	
10428	1042.705	21.9	
10429	1042.805	21.9	
10430	1042.905	21.9	
10431	1043.005	21.85	
10432	1043.105	21.9	
10433	1043.205	21.85	
10434	1043.305	21.9	
10435	1043.405	21.9	
10436	1043.505	21.9	
10437	1043.605	21.85	
10438	1043.705	21.85	
10439	1043.805	21.85	
10440	1043.905	21.9	
10441	1044.005	21.9	
10442	1044.105	21.9	
10443	1044.205	21.9	
10444	1044.305	21.9	
10445	1044.405	21.85	
10446	1044.505	21.85	
10447	1044.605	21.9	
10448	1044.705	21.85	
10449	1044.805	21.9	
10450	1044.905	21.85	
10451	1045.005	21.85	
10452	1045.105	21.85	
10453	1045.205	21.85	
10454	1045.305	21.85	
10455	1045.405	21.85	
10456	1045.505	21.9	
10457	1045.605	21.85	
10458	1045.705	21.85	
10459	1045.805	21.9	
10460	1045.905	21.85	
11741	1174.01	21.45	
11742	1174.11	21.4	
11743	1174.209	21.4	
11744	1174.31	21.4	
11745	1174.41	21.45	
11746	1174.51	21.4	
11747	1174.61	21.4	
11748	1174.709	21.4	
11749	1174.81	21.4	
11750	1174.91	21.4	
11751	1175.01	21.45	
11752	1175.11	21.4	
11753	1175.209	21.4	
11754	1175.31	21.4	
11755	1175.41	21.4	
11756	1175.51	21.45	
11757	1175.61	21.4	
11758	1175.709	21.4	
11759	1175.81	21.4	
11760	1175.91	21.4	
11761	1176.01	21.4	
11762	1176.11	21.4	
11763	1176.21	21.4	
11764	1176.31	21.4	
11765	1176.41	21.45	
11766	1176.51	21.45	
11767	1176.61	21.4	
11768	1176.71	21.4	
11769	1176.81	21.4	
11770	1176.91	21.4	
11771	1177.01	21.4	
11772	1177.11	21.4	
11773	1177.21	21.4	
11774	1177.31	21.4	
11775	1177.41	21.4	
11776	1177.51	21.4	
11777	1177.61	21.4	
11778	1177.71	21.4	
11779	1177.81	21.45	
11780	1177.91	21.4	
11781	1178.01	21.4	
11782	1178.11	21.4	
11783	1178.21	21.4	
11784	1178.31	21.4	
11785	1178.41	21.4	
11786	1178.51	21.4	
11787	1178.61	21.4	
11788	1178.71	21.4	
11789	1178.81	21.45	
11790	1178.91	21.4	
11791	1179.01	21.4	
11792	1179.11	21.35	
11793	1179.21	21.4	
11794	1179.31	21.4	
11795	1179.41	21.4	
11796	1179.51	21.4	
11797	1179.61	21.4	
11798	1179.71	21.45	
11799	1179.81	21.4	
11800	1179.91	21.4	
11801	1180.01	21.4	
11802	1180.11	21.4	
11803	1180.21	21.4	
11804	1180.31	21.45	
11805	1180.41	21.4	
11806	1180.51	21.4	
11807	1180.61	21.4	
11808	1180.71	21.4	
11809	1180.81	21.4	
11810	1180.91	21.4	
11811	1181.01	21.4	
11812	1181.11	21.4	
11813	1181.21	21.4	
11814	1181.301	21.4	
11815	1181.41	21.4	
11816	1181.51	21.4	
11817	1181.61	21.4	
11818	1181.71	21.4	
11819	1181.801	21.4	
11820	1181.91	21.4	
11821	1182.01	21.4	
11822	1182.11	21.4	
11823	1182.21	21.4	
11824	1182.301	21.4	
11825	1182.41	21.4	
11826	1182.511	21.4	
11827	1182.61	21.4	
11828	1182.71	21.4	
11829	1182.801	21.4	
11830	1182.91	21.4	
11831	1183.011	21.4	
11832	1183.11	21.4	
11833	1183.21	21.4	
11834	1183.301	21.4	
11835	1183.41	21.4	
11836	1183.511	21.4	
11837	1183.61	21.4	
11838	1183.71	21.4	
11839	1183.801	21.4	
11840	1183.91	21.4	
11841	1184.011	21.4	
11842	1184.11	21.4	
11843	1184.21	21.4	
11844	1184.301	21.4	
11845	1184.41	21.4	
11846	1184.511	21.4	
11847	1184.61	21.4	
11848	1184.71	21.4	
11849	1184.801	21.4	
11850	1184.91	21.35	
11851	1185.011	21.4	
11852	1185.11	21.4	
11853	1185.21	21.4	
11854	1185.301	21.4	
11855	1185.41	21.4	
11856	1185.511	21.4	
11857	1185.61	21.4	
11858	1185.71	21.4	
11859	1185.801	21.4	
11860	1185.91	21.4	
11861	1186.011	21.4	
11862	1186.11	21.4	
11863	1186.21	21.4	
11864	1186.301	21.4	
11865	1186.41	21.4	
11866	1186.511	21.35	
11867	1186.601	21.4	
11868	1186.71	21.35	
11869	1186.801	21.4	
11870	1186.91	21.4	
11871	1187.011	21.4	
11872	1187.101	21.35	
11873	1187.21	21.4	
11874	1187.301	21.4	
11875	1187.41	21.35	
11876	1187.511	21.4	
11877	1187.601	21.35	
11878	1187.71	21.35	
11879	1187.801	21.4	
11880	1187.91	21.35	
11881	1188.011	21.4	
11882	1188.101	21.35	
11883	1188.21	21.4	
11884	1188.301	21.35	
11885	1188.41	21.35	
11886	1188.511	21.35	
11887	1188.601	21.35	
11888	1188.71	21.35	
11889	1188.801	21.35	
11890	1188.91	21.4	
11891	1189.011	21.35	
11892	1189.101	21.35	
11893	1189.21	21.35	
11894	1189.301	21.35	
11895	1189.41	21.4	
11896	1189.511	21.35	
11897	1189.601	21.35	
11898	1189.71	21.4	
11899	1189.801	21.35	
11900	1189.91	21.4	
11901	1190.011	21.4	
11902	1190.101	21.4	
11903	1190.21	21.4	
11904	1190.301	21.35	
11905	1190.41	21.4	
11906	1190.511	21.4	
11907	1190.601	21.35	
11908	1190.71	21.4	
11909	1190.801	21.4	
11910	1190.91	21.4	
11911	1191.011	21.4	
11912	1191.101	21.35	
11913	1191.21	21.35	
11914	1191.301	21.4	
11915	1191.41	21.4	
11916	1191.511	21.35	
11917	1191.601	21.4	
11918	1191.71	21.4	
11919	1191.801	21.35	
11920	1191.901	21.4	
11921	1192.011	21.35	
11922	1192.101	21.4	
11923	1192.21	21.35	
11924	1192.301	21.4	
11925	1192.401	21.35	
11926	1192.511	21.4	
11927	1192.601	21.4	
11928	1192.71	21.35	
11929	1192.801	21.4	
11930	1192.901	21.35	
11931	1193.011	21.4	
11932	1193.101	21.4	
11933	1193.21	21.35	
11934	1193.305	21.35	
11935	1193.401	21.4	
11936	1193.511	21.35	
11937	1193.601	21.4	
11938	1193.71	21.4	
11939	1193.801	21.4	
11940	1193.901	21.35	
11941	1194.011	21.35	
11942	1194.101	21.4	
11943	1194.21	21.35	
11944	1194.301	21.4	
11945	1194.401	21.4	
11946	1194.511	21.35	
11947	1194.601	21.4	
11948	1194.71	21.4	
11949	1194.801	21.4	
11950	1194.901	21.35	
11951	1195.011	21.4	
11952	1195.101	21.35	
11953	1195.21	21.35	
11954	1195.301	21.4	
11955	1195.401	21.35	
11956	1195.511	21.4	
11957	1195.601	21.4	
11958	1195.71	21.35	
11959	1195.801	21.35	
11960	1195.901	21.35	
11961	1196.011	21.4	
11962	1196.101	21.4	
11963	1196.21	21.35	
11964	1196.301	21.35	
11965	1196.401	21.4	
11966	1196.511	21.35	
11967	1196.601	21.35	
11968	1196.71	21.35	
11969	1196.801	21.35	
11970	1196.901	21.35	
11971	1197.011	21.35	
11972	1197.101	21.4	
11973	1197.201	21.35	
11974	1197.301	21.35	
11975	1197.401	21.35	
11976	1197.511	21.35	
11977	1197.601	21.35	
11978	1197.701	21.35	
11979	1197.801	21.35	
11980	1197.901	21.35	
11981	1198.011	21.35	
11982	1198.101	21.35	
11983	1198.201	21.35	
11984	1198.301	21.4	
11985	1198.401	21.35	
11986	1198.511	21.35	
11987	1198.601	21.4	
11988	1198.701	21.4	
11989	1198.801	21.35	
11990	1198.901	21.35	
11991	1199.011	21.35	
11992	1199.101	21.35	
11993	1199.201	21.4	
11994	1199.301	21.35	
11995	1199.401	21.35	
11996	1199.511	21.35	
11997	1199.601	21.35	
11998	1199.701	21.35	
11999	1199.801	21.4	
12000	1199.901	21.35	
12001	1200.011	21.35	
12002	1200.101	21.35	
12003	1200.201	21.35	
12004	1200.301	21.35	
12005	1200.401	21.4	
12006	1200.511	21.35	
12007	1200.601	21.35	
12008	1200.701	21.35	
12009	1200.801	21.35	
12010	1200.901	21.35	
12011	1201.011	21.35	
12012	1201.101	21.35	
12013	1201.201	21.35	
12014	1201.301	21.35	
12015	1201.401	21.35	
12016	1201.511	21.35	
12017	1201.601	21.35	
12018	1201.701	21.35	
12019	1201.801	21.35	
12020	1201.901	21.35	
12021	1202.011	21.35	
12022	1202.101	21.35	
12023	1202.201	21.35	
12024	1202.301	21.35	
12025	1202.401	21.35	
12026	1202.501	21.35	
12027	1202.601	21.4	
12028	1202.701	21.35	
12029	1202.801	21.35	
12030	1202.901	21.4	
12031	1203.001	21.35	
12032	1203.101	21.35	
12033	1203.201	21.4	
12034	1203.301	21.4	
12035	1203.401	21.4	
12036	1203.501	21.35	
12037	1203.601	21.35	
12038	1203.701	21.35	
12039	1203.801	21.35	
12040	1203.901	21.35	
12041	1204.001	21.35	
12042	1204.101	21.35	
12043	1204.201	21.35	
12044	1204.301	21.35	
12045	1204.401	21.35	
12046	1204.501	21.35	
12047	1204.601	21.35	
12048	1204.701	21.35	
12049	1204.801	21.4	
12050	1204.901	21.35	
12051	1205.001	21.35	
12052	1205.101	21.35	
12053	1205.201	21.35	
12054	1205.301	21.35	
12055	1205.401	21.35	
12056	1205.501	21.35	
12057	1205.601	21.35	
12058	1205.701	21.35	
12059	1205.801	21.35	
12060	1205.901	21.4	
12061	1206.001	21.35	
12062	1206.101	21.35	
12063	1206.201	21.35	
12064	1206.301	21.35	
12065	1206.401	21.35	
12066	1206.501	21.35	
12067	1206.601	21.35	
12068	1206.701	21.4	
12069	1206.801	21.35	
12070	1206.901	21.35	
12071	1207.001	21.4	
12072	1207.101	21.35	
12073	1207.201	21.35	
12074	1207.301	21.35	
12075	1207.401	21.35	
12076	1207.501	21.35	
12077	1207.601	21.35	
12078	1207.701	21.4	
12079	1207.801	21.35	
12080	1207.901	21.4	
12081	1208.001	21.35	
12082	1208.101	21.35	
12083	1208.201	21.35	
12084	1208.302	21.35	
12085	1208.401	21.35	
12086	1208.501	21.35	
12087	1208.601	21.4	
12088	1208.701	21.4	
12089	1208.802	21.4	
12090	1208.901	21.35	
12091	1209.001	21.35	
12092	1209.101	21.35	
12093	1209.201	21.4	
12094	1209.302	21.35	
12095	1209.401	21.35	
12096	1209.501	21.35	
12097	1209.601	21.35	
12098	1209.701	21.35	
12099	1209.802	21.35	
12100	1209.901	21.35	
12101	1210.001	21.35	
12102	1210.101	21.35	
12103	1210.201	21.35	
12104	1210.302	21.35	
12105	1210.401	21.35	
12106	1210.501	21.35	
12107	1210.601	21.35	
12108	1210.701	21.35	
12109	1210.802	21.35	
12110	1210.901	21.4	
12111	1211.001	21.35	
12112	1211.101	21.35	
12113	1211.201	21.35	
12114	1211.302	21.35	
12115	1211.401	21.35	
12116	1211.501	21.35	
12117	1211.601	21.35	
12118	1211.701	21.35	
12119	1211.802	21.35	
12120	1211.901	21.35	
12121	1212.001	21.35	
12122	1212.101	21.35	
12123	1212.201	21.35	
12124	1212.302	21.35	
12125	1212.401	21.35	
12126	1212.501	21.35	
12127	1212.601	21.35	
12128	1212.701	21.35	
12129	1212.802	21.35	
12130	1212.901	21.35	
12131	1213.001	21.35	
12132	1213.101	21.35	
12133	1213.201	21.35	
12134	1213.302	21.35	
12135	1213.401	21.35	
12136	1213.501	21.35	
12137	1213.602	21.35	
12138	1213.701	21.35	
12139	1213.802	21.35	
12140	1213.901	21.35	
12141	1214.001	21.35	
12142	1214.102	21.35	
12143	1214.201	21.35	
12144	1214.302	21.35	
12145	1214.401	21.35	
12146	1214.501	21.35	
12147	1214.602	21.35	
12148	1214.701	21.35	
12149	1214.802	21.35	
12150	1214.901	21.35	
12151	1215.001	21.35	
12152	1215.102	21.35	
12153	1215.201	21.35	
12154	1215.302	21.35	
12155	1215.401	21.35	
12156	1215.501	21.35	
12157	1215.602	21.35	
12158	1215.701	21.35	
12159	1215.802	21.35	
12160	1215.901	21.35	
12161	1216.001	21.35	
12162	1216.102	21.35	
12163	1216.201	21.35	
12164	1216.302	21.35	
12165	1216.401	21.35	
12166	1216.501	21.35	
12167	1216.602	21.35	
12168	1216.701	21.35	
12169	1216.802	21.35	
12170	1216.901	21.35	
12171	1217.001	21.35	
12172	1217.102	21.35	
12173	1217.201	21.35	
12174	1217.302	21.35	
12175	1217.401	21.3	
12176	1217.501	21.35	
12177	1217.602	21.35	
12178	1217.701	21.35	
12179	1217.802	21.35	
12180	1217.901	21.35	
12181	1218.001	21.35	
12182	1218.102	21.3	
12183	1218.201	21.35	
12184	1218.302	21.35	
12185	1218.403	21.35	
12186	1218.501	21.35	
12187	1218.602	21.3	
12188	1218.701	21.35	
12189	1218.802	21.35	
12190	1218.902	21.35	
12191	1219.001	21.35	
12192	1219.102	21.35	
12193	1219.201	21.3	
12194	1219.302	21.35	
12195	1219.402	21.35	
12196	1219.501	21.35	
12197	1219.602	21.3	
12198	1219.701	21.35	
12199	1219.802	21.35	
12200	1219.902	21.35	
12201	1220.001	21.35	
12202	1220.102	21.3	
12203	1220.201	21.35	
12204	1220.302	21.3	
12205	1220.402	21.35	
12206	1220.501	21.3	
12207	1220.602	21.35	
12208	1220.701	21.35	
12209	1220.802	21.35	
12210	1220.902	21.35	
12211	1221.001	21.35	
12212	1221.102	21.3	
12213	1221.201	21.3	
12214	1221.302	21.3	
12215	1221.402	21.3	
12216	1221.501	21.35	
12217	1221.602	21.35	
12218	1221.701	21.35	
12219	1221.802	21.35	
12220	1221.902	21.3	
12221	1222.001	21.3	
12222	1222.102	21.35	
12223	1222.201	21.3	
12224	1222.302	21.3	
12225	1222.402	21.35	
12226	1222.501	21.35	
12227	1222.602	21.3	
12228	1222.701	21.3	
12229	1222.802	21.3	
12230	1222.902	21.35	
12231	1223.001	21.3	
12232	1223.102	21.3	
12233	1223.201	21.3	
12234	1223.302	21.35	
12235	1223.402	21.35	
12236	1223.501	21.35	
12237	1223.602	21.35	
12238	1223.701	21.35	
12239	1223.802	21.3	
12240	1223.902	21.35	
12241	1224.001	21.3	
12242	1224.102	21.3	
12243	1224.202	21.3	
12244	1224.302	21.35	
12245	1224.402	21.3	
12246	1224.501	21.3	
12247	1224.602	21.3	
12248	1224.702	21.35	
12249	1224.802	21.35	
12250	1224.902	21.3	
12251	1225.001	21.35	
12252	1225.102	21.3	
12253	1225.202	21.3	
12254	1225.302	21.3	
12255	1225.402	21.35	
12256	1225.501	21.3	
12257	1225.602	21.3	
12258	1225.702	21.35	
12259	1225.802	21.35	
12260	1225.902	21.3	
12261	1226.001	21.35	
12262	1226.102	21.35	
12263	1226.202	21.3	
12264	1226.302	21.3	
12265	1226.402	21.3	
12266	1226.501	21.3	
12267	1226.602	21.3	
12268	1226.702	21.3	
12269	1226.802	21.3	
12270	1226.902	21.3	
12271	1227.001	21.35	
12272	1227.102	21.35	
12273	1227.202	21.3	
12274	1227.302	21.35	
12275	1227.402	21.3	
12276	1227.501	21.35	
12277	1227.602	21.3	
12278	1227.702	21.35	
12279	1227.802	21.3	
12280	1227.902	21.3	
12281	1228.001	21.3	
12282	1228.102	21.3	
12283	1228.202	21.3	
12284	1228.302	21.3	
12285	1228.402	21.35	
12286	1228.501	21.3	
12287	1228.602	21.35	
12288	1228.702	21.3	
12289	1228.802	21.3	
12290	1228.902	21.3	
12291	1229.001	21.3	
12292	1229.102	21.3	
12293	1229.202	21.3	
12294	1229.302	21.35	
12295	1229.402	21.3	
12296	1229.502	21.3	
12297	1229.602	21.3	
12298	1229.702	21.3	
12299	1229.802	21.3	
12300	1229.902	21.3	
12301	1230.002	21.3	
12302	1230.102	21.3	
12303	1230.202	21.3	
12304	1230.302	21.3	
12305	1230.402	21.3	
12306	1230.502	21.3	
12307	1230.602	21.3	
12308	1230.702	21.3	
12309	1230.802	21.3	
12310	1230.902	21.3	
12311	1231.002	21.3	
12312	1231.102	21.3	
12313	1231.202	21.3	
12314	1231.302	21.3	
12315	1231.402	21.35	
12316	1231.502	21.3	
12317	1231.602	21.3	
12318	1231.702	21.3	
12319	1231.802	21.3	
12320	1231.902	21.3	
12321	1232.002	21.3	
12322	1232.102	21.3	
12323	1232.202	21.3	
12324	1232.302	21.3	
12325	1232.402	21.3	
12326	1232.502	21.3	
12327	1232.602	21.3	
12328	1232.702	21.3	
12329	1232.802	21.3	
12330	1232.902	21.3	
12331	1233.002	21.3	
12332	1233.102	21.3	
12333	1233.202	21.3	
12334	1233.302	21.3	
12335	1233.402	21.3	
12336	1233.502	21.3	
12337	1233.602	21.35	
12338	1233.702	21.3	
12339	1233.802	21.3	
12340	1233.902	21.3	
12341	1234.002	21.3	
12342	1234.102	21.3	
12343	1234.202	21.3	
12344	1234.302	21.3	
12345	1234.402	21.3	
12346	1234.502	21.3	
12347	1234.602	21.3	
12348	1234.702	21.3	
12349	1234.802	21.3	
12350	1234.902	21.3	
12351	1235.002	21.3	
12352	1235.102	21.3	
12353	1235.202	21.3	
12354	1235.303	21.3	
12355	1235.402	21.3	
12356	1235.502	21.3	
12357	1235.602	21.3	
12358	1235.702	21.3	
12359	1235.803	21.3	
12360	1235.902	21.3	
12361	1236.002	21.3	
12362	1236.102	21.3	
12363	1236.202	21.3	
12364	1236.303	21.3	
12365	1236.402	21.3	
12366	1236.502	21.3	
12367	1236.602	21.3	
12368	1236.702	21.3	
12369	1236.803	21.3	
12370	1236.902	21.3	
12371	1237.002	21.3	
12372	1237.102	21.3	
12373	1237.202	21.3	
12374	1237.303	21.3	
12375	1237.402	21.3	
12376	1237.502	21.3	
12377	1237.602	21.3	
12378	1237.702	21.3	
12379	1237.803	21.3	
12380	1237.902	21.3	
12381	1238.002	21.25	
12382	1238.102	21.3	
12383	1238.202	21.25	
12384	1238.303	21.25	
12385	1238.402	21.25	
12386	1238.502	21.25	
12387	1238.602	21.25	
12388	1238.702	21.25	
12389	1238.803	21.25	
12390	1238.902	21.25	
12391	1239.002	21.25	
12392	1239.102	21.25	
12393	1239.202	21.25	
12394	1239.303	21.25	
12395	1239.402	21.25	
12396	1239.502	21.25	
12397	1239.602	21.25	
12398	1239.702	21.25	
12399	1239.803	21.25	
12400	1239.902	21.25	
12401	1240.002	21.25	
12402	1240.102	21.25	
12403	1240.202	21.25	
12404	1240.303	21.25	
12405	1240.402	21.25	
12406	1240.502	21.25	
12407	1240.603	21.25	
12408	1240.702	21.25	
12409	1240.803	21.25	
12410	1240.902	21.25	
12411	1241.002	21.25	
12412	1241.103	21.25	
12413	1241.202	21.25	
12414	1241.303	21.25	
12415	1241.402	21.25	
12416	1241.502	21.25	
12417	1241.603	21.25	
12418	1241.702	21.25	
12419	1241.803	21.25	
12420	1241.902	21.25	
12421	1242.002	21.25	
12422	1242.103	21.25	
12423	1242.202	21.25	
12424	1242.303	21.25	
12425	1242.402	21.25	
12426	1242.502	21.25	
12427	1242.603	21.25	
12428	1242.702	21.25	
12429	1242.803	21.25	
12430	1242.902	21.25	
12431	1243.002	21.25	
12432	1243.103	21.25	
12433	1243.202	21.25	
12434	1243.303	21.3	
12435	1243.402	21.25	
12436	1243.502	21.25	
12437	1243.603	21.25	
12438	1243.702	21.25	
12439	1243.803	21.25	
12440	1243.902	21.25	
12441	1244.002	21.25	
12442	1244.103	21.25	
12443	1244.202	21.25	
12444	1244.303	21.25	
12445	1244.402	21.25	
12446	1244.506	21.25	
12447	1244.603	21.25	
12448	1244.702	21.25	
12449	1244.803	21.25	
12450	1244.902	21.25	
12451	1245.002	21.25	
12452	1245.103	21.25	
12453	1245.202	21.25	
12454	1245.303	21.25	
12455	1245.402	21.25	
12456	1245.502	21.25	
12457	1245.603	21.25	
12458	1245.702	21.25	
12459	1245.803	21.25	
12460	1245.903	21.25	
12461	1246.002	21.25	
12462	1246.103	21.2	
12463	1246.202	21.25	
12464	1246.303	21.25	
12465	1246.403	21.25	
12466	1246.502	21.25	
12467	1246.603	21.25	
12468	1246.702	21.25	
12469	1246.803	21.25	
12470	1246.903	21.25	
12471	1247.002	21.25	
12472	1247.103	21.25	
12473	1247.202	21.25	
12474	1247.303	21.25	
12475	1247.403	21.25	
12476	1247.502	21.25	
12477	1247.603	21.25	
12478	1247.702	21.25	
12479	1247.803	21.25	
12480	1247.903	21.25	
12481	1248.002	21.25	
12482	1248.103	21.25	
12483	1248.202	21.25	
12484	1248.303	21.25	
12485	1248.403	21.25	
12486	1248.502	21.25	
12487	1248.603	21.25	
12488	1248.702	21.25	
12489	1248.803	21.25	
12490	1248.903	21.25	
12491	1249.002	21.25	
12492	1249.103	21.25	
12493	1249.202	21.25	
12494	1249.303	21.25	
12495	1249.403	21.25	
12496	1249.502	21.25	
12497	1249.603	21.25	
12498	1249.702	21.25	
12499	1249.803	21.25	
12500	1249.903	21.25	
12501	1250.002	21.25	
12502	1250.103	21.25	
12503	1250.202	21.25	
12504	1250.303	21.25	
12505	1250.403	21.25	
12506	1250.502	21.25	
12507	1250.603	21.25	
12508	1250.702	21.25	
12509	1250.803	21.25	
12510	1250.903	21.25	
12511	1251.002	21.25	
12512	1251.103	21.25	
12513	1251.203	21.25	
12514	1251.303	21.25	
12515	1251.403	21.25	
12516	1251.502	21.25	
12517	1251.603	21.25	
12518	1251.703	21.25	
12519	1251.803	21.25	
12520	1251.903	21.25	
12521	1252.002	21.25	
12522	1252.103	21.25	
12523	1252.203	21.25	
12524	1252.303	21.25	
12525	1252.403	21.25	
12526	1252.502	21.25	
12527	1252.603	21.25	
12528	1252.703	21.25	
12529	1252.803	21.25	
12530	1252.903	21.25	
12531	1253.002	21.25	
12532	1253.103	21.25	
12533	1253.203	21.25	
12534	1253.303	21.25	
12535	1253.401	21.25	
12536	1253.501	21.25	
12537	1253.601	21.25	
12538	1253.701	21.25	
12539	1253.801	21.25	
12540	1253.901	21.25	
12541	1254.001	21.25	
12542	1254.101	21.25	
12543	1254.201	21.25	
12544	1254.301	21.25	
12545	1254.401	21.25	
12546	1254.501	21.25	
12547	1254.601	21.25	
12548	1254.701	21.25	
12549	1254.801	21.25	
12550	1254.901	21.25	
12551	1255.001	21.25	
12552	1255.101	21.25	
12553	1255.201	21.25	
12554	1255.301	21.25	
12555	1255.401	21.25	
12556	1255.501	21.25	
12557	1255.601	21.25	
12558	1255.701	21.25	
12559	1255.801	21.25	
12560	1255.901	21.2	
12561	1256.001	21.25	
12562	1256.101	21.25	
12563	1256.201	21.25	
12564	1256.301	21.25	
12565	1256.401	21.25	
12566	1256.501	21.25	
12567	1256.601	21.25	
12568	1256.701	21.25	
12569	1256.801	21.25	
12570	1256.901	21.25	
12571	1257.001	21.25	
12572	1257.101	21.25	
12573	1257.201	21.25	
12574	1257.301	21.2	
12575	1257.401	21.25	
12576	1257.501	21.25	
12577	1257.601	21.2	
12578	1257.701	21.25	
12579	1257.801	21.25	
12580	1257.901	21.25	
12581	1258.001	21.25	
12582	1258.101	21.25	
12583	1258.201	21.25	
12584	1258.301	21.25	
12585	1258.401	21.25	
12586	1258.501	21.2	
12587	1258.601	21.25	
12588	1258.701	21.25	
12589	1258.801	21.25	
12590	1258.901	21.25	
12591	1259.001	21.2	
12592	1259.101	21.25	
12593	1259.201	21.25	
12594	1259.301	21.25	
12595	1259.401	21.25	
12596	1259.501	21.25	
12597	1259.601	21.2	
12598	1259.701	21.25	
12599	1259.801	21.25	
12600	1259.901	21.25	
12601	1260.001	21.25	
12602	1260.101	21.25	
12603	1260.201	21.25	
12604	1260.301	21.25	
12605	1260.401	21.25	
12606	1260.501	21.25	
12607	1260.601	21.25	
12608	1260.701	21.25	
12609	1260.801	21.2	
12610	1260.901	21.25	
12611	1261.001	21.25	
12612	1261.101	21.2	
12613	1261.201	21.2	
12614	1261.301	21.2	
12615	1261.401	21.25	
12616	1261.501	21.25	
12617	1261.601	21.25	
12618	1261.701	21.2	
12619	1261.801	21.25	
12620	1261.901	21.25	
12621	1262.001	21.25	
12622	1262.101	21.25	
12623	1262.201	21.25	
12624	1262.301	21.25	
12625	1262.401	21.2	
12626	1262.501	21.25	
12627	1262.601	21.2	
12628	1262.701	21.25	
12629	1262.801	21.25	
12630	1262.901	21.25	
12631	1263.001	21.25	
12632	1263.101	21.2	
12633	1263.201	21.2	
12634	1263.301	21.25	
12635	1263.401	21.2	
12636	1263.501	21.2	
12637	1263.601	21.2	
12638	1263.701	21.2	
12639	1263.801	21.2	
12640	1263.901	21.2	
12641	1264.001	21.25	
12642	1264.101	21.2	
12643	1264.201	21.2	
12644	1264.301	21.2	
12645	1264.401	21.25	
12646	1264.501	21.2	
12647	1264.601	21.25	
12648	1264.701	21.2	
12649	1264.801	21.2	
12650	1264.901	21.2	
12651	1265.001	21.2	
12652	1265.101	21.2	
12653	1265.201	21.2	
12654	1265.301	21.25	
12655	1265.401	21.2	
12656	1265.501	21.2	
12657	1265.601	21.2	
12658	1265.701	21.2	
12659	1265.801	21.2	
12660	1265.901	21.2	
12661	1266.001	21.15	
12662	1266.101	21.15	
12663	1266.201	21.15	
12664	1266.301	21.15	
12665	1266.401	21.15	
12666	1266.501	21.15	
12667	1266.601	21.15	
12668	1266.701	21.15	
12669	1266.801	21.15	
12670	1266.901	21.15	
12671	1267.001	21.15	
12672	1267.101	21.15	
12673	1267.201	21.15	
12674	1267.301	21.15	
12675	1267.401	21.1	
12676	1267.501	21.1	
12677	1267.601	21.1	
12678	1267.701	21.1	
12679	1267.801	21.1	
12680	1267.901	21.1	
12681	1268.001	21.1	
12682	1268.101	21.1	
12683	1268.201	21.1	
12684	1268.301	21.1	
12685	1268.401	21.1	
12686	1268.501	21.1	
12687	1268.601	21.1	
12688	1268.701	21.1	
12689	1268.801	21.1	
12690	1268.901	21.1	
12691	1269.001	21.1	
12692	1269.101	21.1	
12693	1269.201	21.1	
12694	1269.301	21.1	
12695	1269.401	21.1	
12696	1269.501	21.1	
12697	1269.601	21.1	
12698	1269.701	21.1	
12699	1269.801	21.1	
12700	1269.901	21.1	
12701	1270.001	21.1	
12702	1270.101	21.1	
12703	1270.201	21.1	
12704	1270.301	21.1	
12705	1270.401	21.05	
12706	1270.501	21.1	
12707	1270.601	21.1	
12708	1270.701	21.1	
12709	1270.801	21.1	
12710	1270.901	21.1	
12711	1271.001	21.1	
12712	1271.101	21.1	
12713	1271.201	21.1	
12714	1271.301	21.1	
12715	1271.401	21.1	
12716	1271.501	21.1	
12717	1271.601	21.1	
12718	1271.701	21.1	
12719	1271.801	21.1	
12720	1271.901	21.1	
12721	1272.001	21.1	
12722	1272.101	21.1	
12723	1272.201	21.15	
12724	1272.301	21.1	
12725	1272.401	21.1	
12726	1272.501	21.1	
12727	1272.601	21.1	
12728	1272.701	21.1	
12729	1272.801	21.15	
12730	1272.901	21.1	
12731	1273.001	21.1	
12732	1273.101	21.1	
12733	1273.201	21.1	
12734	1273.301	21.1	
12735	1273.401	21.1	
12736	1273.501	21.1	
12737	1273.601	21.1	
12738	1273.701	21.1	
12739	1273.801	21.1	
12740	1273.901	21.1	
12741	1274.001	21.1	
12742	1274.101	21.1	
12743	1274.201	21.1	
12744	1274.301	21.1	
12745	1274.401	21.1	
12746	1274.501	21.1	
12747	1274.601	21.1	
12748	1274.701	21.1	
12749	1274.801	21.1	
12750	1274.901	21.1	
12751	1275.001	21.1	
12752	1275.101	21.1	
12753	1275.201	21.1	
12754	1275.301	21.1	
12755	1275.401	21.1	
12756	1275.501	21.1	
12757	1275.601	21.1	
12758	1275.701	21.1	
12759	1275.801	21.1	
12760	1275.901	21.1	
12761	1276.001	21.1	
12762	1276.101	21.1	
12763	1276.201	21.1	
12764	1276.301	21.1	
12765	1276.401	21.1	
12766	1276.501	21.1	
12767	1276.601	21.1	
12768	1276.701	21.1	
12769	1276.801	21.15	
12770	1276.901	21.15	
12771	1277.001	21.1	
12772	1277.101	21.1	
12773	1277.201	21.1	
12774	1277.301	21.1	
12775	1277.401	21.1	
12776	1277.501	21.1	
12777	1277.601	21.1	
12778	1277.701	21.1	
12779	1277.801	21.1	
12780	1277.901	21.15	
12781	1278.001	21.1	
12782	1278.101	21.1	
12783	1278.201	21.15	
12784	1278.301	21.15	
12785	1278.401	21.15	
12786	1278.501	21.1	
12787	1278.601	21.1	
12788	1278.701	21.1	
12789	1278.801	21.1	
12790	1278.901	21.1	
12791	1279.001	21.1	
12792	1279.101	21.15	
12793	1279.201	21.15	
12794	1279.301	21.1	
12795	1279.401	21.15	
12796	1279.501	21.1	
12797	1279.601	21.15	
12798	1279.701	21.1	
12799	1279.801	21.1	
12800	1279.901	21.15	
12801	1280.001	21.1	
12802	1280.101	21.1	
12803	1280.201	21.15	
12804	1280.301	21.1	
12805	1280.401	21.1	
12806	1280.501	21.15	
12807	1280.601	21.1	
12808	1280.701	21.15	
12809	1280.801	21.1	
12810	1280.901	21.1	
12811	1281.001	21.1	
12812	1281.101	21.15	
12813	1281.201	21.15	
12814	1281.301	21.1	
12815	1281.401	21.1	
12816	1281.501	21.1	
12817	1281.601	21.1	
12818	1281.701	21.1	
12819	1281.801	21.15	
12820	1281.901	21.1	
12821	1282.001	21.1	
12822	1282.101	21.1	
12823	1282.201	21.1	
12824	1282.301	21.1	
12825	1282.401	21.15	
12826	1282.501	21.1	
12827	1282.601	21.1	
12828	1282.701	21.1	
12829	1282.801	21.15	
12830	1282.901	21.1	
12831	1283.001	21.1	
12832	1283.101	21.1	
12833	1283.201	21.15	
12834	1283.301	21.1	
12835	1283.401	21.15	
12836	1283.501	21.1	
12837	1283.601	21.15	
12838	1283.701	21.15	
12839	1283.801	21.1	
12840	1283.901	21.15	
12841	1284.001	21.15	
12842	1284.101	21.1	
12843	1284.201	21.1	
12844	1284.301	21.1	
12845	1284.401	21.1	
12846	1284.501	21.15	
12847	1284.601	21.15	
12848	1284.701	21.15	
12849	1284.801	21.1	
12850	1284.901	21.15	
12851	1285.001	21.1	
12852	1285.101	21.1	
12853	1285.201	21.15	
12854	1285.301	21.15	
12855	1285.401	21.1	
12856	1285.501	21.1	
12857	1285.601	21.15	
12858	1285.701	21.1	
12859	1285.801	21.1	
12860	1285.901	21.15	
12861	1286.001	21.1	
12862	1286.101	21.15	
12863	1286.201	21.1	
12864	1286.301	21.15	
12865	1286.401	21.15	
12866	1286.501	21.1	
12867	1286.601	21.1	
12868	1286.701	21.15	
12869	1286.801	21.15	
12870	1286.901	21.1	
12871	1287.001	21.1	
12872	1287.101	21.1	
12873	1287.201	21.15	
12874	1287.301	21.15	
12875	1287.401	21.15	
12876	1287.501	21.1	
12877	1287.601	21.15	
12878	1287.701	21.1	
12879	1287.801	21.1	
12880	1287.901	21.1	
12881	1288.001	21.1	
12882	1288.101	21.1	
12883	1288.201	21.1	
12884	1288.301	21.1	
12885	1288.401	21.1	
12886	1288.501	21.15	
12887	1288.601	21.15	
12888	1288.701	21.1	
12889	1288.801	21.1	
12890	1288.901	21.1	
12891	1289.001	21.1	
12892	1289.101	21.1	
12893	1289.201	21.1	
12894	1289.301	21.1	
12895	1289.401	21.15	
12896	1289.501	21.1	
12897	1289.601	21.1	
12898	1289.701	21.15	
12899	1289.801	21.15	
12900	1289.901	21.1	
12901	1290.001	21.15	
12902	1290.101	21.15	
12903	1290.201	21.1	
12904	1290.301	21.1	
12905	1290.401	21.1	
12906	1290.501	21.1	
12907	1290.601	21.1	
12908	1290.701	21.15	
12909	1290.801	21.1	
12910	1290.901	21.1	
12911	1291.001	21.1	
12912	1291.101	21.1	
12913	1291.201	21.1	
12914	1291.301	21.1	
12915	1291.401	21.1	
12916	1291.501	21.1	
12917	1291.601	21.1	
12918	1291.701	21.1	
12919	1291.801	21.1	
12920	1291.901	21.1	
12921	1292.001	21.1	
12922	1292.101	21.1	
12923	1292.201	21.15	
12924	1292.301	21.1	
12925	1292.401	21.15	
12926	1292.501	21.1	
12927	1292.601	21.1	
12928	1292.701	21.1	
12929	1292.801	21.1	
12930	1292.901	21.1	
12931	1293.001	21.1	
12932	1293.101	21.1	
12933	1293.201	21.1	
12934	1293.301	21.1	
12935	1293.401	21.1	
12936	1293.501	21.1	
12937	1293.601	21.15	
12938	1293.701	21.15	
12939	1293.801	21.1	
12940	1293.901	21.1	
12941	1294.001	21.1	
12942	1294.101	21.1	
12943	1294.201	21.1	
12944	1294.301	21.1	
12945	1294.401	21.1	
12946	1294.501	21.1	
12947	1294.601	21.1	
12948	1294.701	21.1	
12949	1294.801	21.1	
12950	1294.901	21.1	
12951	1295.001	21.1	
12952	1295.101	21.1	
12953	1295.201	21.1	
12954	1295.301	21.1	
12955	1295.401	21.1	
12956	1295.501	21.1	
12957	1295.601	21.1	
12958	1295.701	21.1	
12959	1295.801	21.1	
12960	1295.901	21.1	
12961	1296.001	21.1	
12962	1296.101	21.1	
12963	1296.201	21.1	
12964	1296.301	21.1	
12965	1296.401	21.1	
12966	1296.501	21.1	
12967	1296.601	21.1	
12968	1296.701	21.1	
12969	1296.801	21.1	
12970	1296.901	21.1	
12971	1297.001	21.1	
12972	1297.101	21.1	
12973	1297.201	21.1	
12974	1297.301	21.1	
12975	1297.401	21.1	
12976	1297.501	21.1	
12977	1297.601	21.1	
12978	1297.701	21.1	
12979	1297.801	21.1	
12980	1297.901	21.1	
12981	1298.001	21.1	
12982	1298.101	21.1	
12983	1298.201	21.1	
12984	1298.301	21.1	
12985	1298.401	21.1	
12986	1298.501	21.1	
12987	1298.601	21.1	
12988	1298.701	21.1	
12989	1298.801	21.1	
12990	1298.901	21.1	
12991	1299.001	21.1	
12992	1299.101	21.1	
12993	1299.201	21.1	
12994	1299.301	21.1	
12995	1299.401	21.1	
12996	1299.501	21.1	
12997	1299.601	21.1	
12998	1299.701	21.1	
12999	1299.801	21.1	
13000	1299.901	21.1	
13001	1300.001	21.1	
13002	1300.101	21.1	
13003	1300.201	21.1	
13004	1300.301	21.1	
13005	1300.401	21.1	
13006	1300.501	21.1	
13007	1300.601	21.1	
13008	1300.701	21.1	
13009	1300.801	21.1	
13010	1300.901	21.1	
13011	1301.001	21.1	
13012	1301.101	21.1	
13013	1301.201	21.1	
13014	1301.301	21.1	
13015	1301.401	21.1	
13016	1301.501	21.1	
13017	1301.601	21.1	
13018	1301.701	21.1	
13019	1301.801	21.1	
13020	1301.901	21.1	
13021	1302.001	21.1	
13022	1302.101	21.1	
13023	1302.201	21.1	
13024	1302.301	21.1	
13025	1302.401	21.1	
13026	1302.501	21.1	
13027	1302.601	21.1	
13028	1302.701	21.1	
13029	1302.801	21.1	
13030	1302.901	21.1	
13031	1303.001	21.1	
13032	1303.101	21.1	
13033	1303.201	21.1	
13034	1303.301	21.1	
13035	1303.401	21.1	
13036	1303.501	21.1	
13037	1303.601	21.1	
13038	1303.701	21.1	
13039	1303.801	21.1	
13040	1303.901	21.1	
13041	1304.001	21.1	
13042	1304.101	21.1	
13043	1304.201	21.1	
13044	1304.301	21.1	
13045	1304.401	21.1	
13046	1304.501	21.1	
13047	1304.601	21.1	
13048	1304.701	21.1	
13049	1304.801	21.1	
13050	1304.901	21.1	
13051	1305.001	21.1	
13052	1305.101	21.1	
13053	1305.201	21.1	
13054	1305.301	21.1	
13055	1305.401	21.1	
13056	1305.501	21.1	
13057	1305.601	21.1	
13058	1305.701	21.1	
13059	1305.801	21.1	
13060	1305.901	21.1	
13061	1306.001	21.1	
13062	1306.101	21.1	
13063	1306.201	21.1	
13064	1306.301	21.1	
13065	1306.401	21.1	
13066	1306.501	21.1	
13067	1306.601	21.1	
13068	1306.701	21.1	
13069	1306.801	21.1	
13070	1306.901	21.1	
13071	1307.001	21.1	
13072	1307.101	21.1	
13073	1307.201	21.1	
13074	1307.301	21.1	
13075	1307.401	21.05	
13076	1307.501	21.1	
13077	1307.601	21.1	
13078	1307.701	21.1	
13079	1307.801	21.1	
13080	1307.901	21.1	
13081	1308.001	21.1	
13082	1308.101	21.1	
13083	1308.201	21.1	
13084	1308.301	21.1	
13085	1308.401	21.1	
13086	1308.501	21.1	
13087	1308.601	21.1	
13088	1308.701	21.1	
13089	1308.801	21.1	
13090	1308.901	21.05	
13091	1309.001	21.1	
13092	1309.101	21.1	
13093	1309.201	21.1	
13094	1309.301	21.1	
13095	1309.401	21.1	
13096	1309.501	21.1	
13097	1309.601	21.1	
13098	1309.701	21.1	
13099	1309.801	21.1	
13100	1309.901	21.1	
13101	1310.001	21.1	
13102	1310.101	21.1	
13103	1310.201	21.05	
13104	1310.301	21.1	
13105	1310.401	21.1	
13106	1310.501	21.1	
13107	1310.601	21.1	
13108	1310.701	21.1	
13109	1310.801	21.05	
13110	1310.901	21.1	
13111	1311.001	21.1	
13112	1311.101	21.05	
13113	1311.201	21.1	
13114	1311.301	21.1	
13115	1311.401	21.1	
13116	1311.501	21.05	
13117	1311.601	21.05	
13118	1311.701	21.05	
13119	1311.801	21.1	
13120	1311.901	21.05	
13121	1312.001	21.05	
13122	1312.101	21.1	
13123	1312.201	21.05	
13124	1312.301	21.05	
13125	1312.401	21.05	
13126	1312.501	21.05	
13127	1312.601	21.05	
13128	1312.701	21.05	
13129	1312.801	21.05	
13130	1312.901	21.05	
13131	1313.001	21.1	
13132	1313.101	21.1	
13133	1313.201	21.05	
13134	1313.301	21.05	
13135	1313.401	21.05	
13136	1313.501	21.05	
13137	1313.601	21.05	
13138	1313.701	21.1	
13139	1313.801	21.05	
13140	1313.901	21.05	
13141	1314.001	21.05	
13142	1314.101	21.05	
13143	1314.201	21.05	
13144	1314.301	21.05	
13145	1314.401	21.05	
13146	1314.501	21.05	
13147	1314.601	21.05	
13148	1314.701	21.05	
13149	1314.801	21.05	
13150	1314.901	21.05	
13151	1315.001	21.05	
13152	1315.101	21.05	
13153	1315.201	21.05	
13154	1315.301	21.05	
13155	1315.401	21.05	
13156	1315.501	21.05	
13157	1315.601	21.05	
13158	1315.701	21.05	
13159	1315.801	21.05	
13160	1315.901	21.05	
13161	1316.001	21.05	
13162	1316.101	21.05	
13163	1316.201	21.05	
13164	1316.301	21.05	
13165	1316.401	21.05	
13166	1316.501	21.05	
13167	1316.601	21.05	
13168	1316.701	21.05	
13169	1316.801	21.05	
13170	1316.901	21.05	
13171	1317.001	21.05	
13172	1317.101	21.05	
13173	1317.201	21.05	
13174	1317.301	21.05	
13175	1317.401	21.05	
13176	1317.501	21.05	
13177	1317.601	21.05	
13178	1317.701	21.05	
13179	1317.801	21.05	
13180	1317.901	21.05	
13181	1318.001	21.05	
13182	1318.101	21.05	
13183	1318.201	21.05	
13184	1318.301	21.05	
13185	1318.401	21.05	
13186	1318.501	21.05	
13187	1318.601	21.05	
13188	1318.701	21.05	
13189	1318.801	21	
13190	1318.901	21	
13191	1319.001	21.05	
13192	1319.101	21.05	
13193	1319.201	21.05	
13194	1319.301	21.05	
13195	1319.401	21	
13196	1319.501	21.05	
13197	1319.601	21	
13198	1319.701	21.05	
13199	1319.801	21.05	
13200	1319.901	21.05	
13201	1320.001	21.05	
13202	1320.101	21.05	
13203	1320.201	21.05	
13204	1320.301	21	
13205	1320.401	21.05	
13206	1320.501	21	
13207	1320.601	21	
13208	1320.701	21.05	
13209	1320.801	21	
13210	1320.901	21.05	
13211	1321.001	21	
13212	1321.101	21	
13213	1321.201	21	
13214	1321.301	21.05	
13215	1321.401	21.05	
13216	1321.501	21.05	
13217	1321.601	21	
13218	1321.701	21	
13219	1321.801	21	
13220	1321.901	21	
13221	1322.001	21	
13222	1322.101	21	
13223	1322.201	21.05	
13224	1322.301	21.05	
13225	1322.401	21.05	
13226	1322.501	21	
13227	1322.601	21	
13228	1322.701	21	
13229	1322.801	21.05	
13230	1322.901	21	
13231	1323.001	21.05	
13232	1323.101	21.05	
13233	1323.201	21	
13234	1323.301	21	
13235	1323.401	21	
13236	1323.501	21	
13237	1323.601	21.05	
13238	1323.701	21.1	
13239	1323.801	21.05	
13240	1323.901	21.05	
13241	1324.001	21.05	
13242	1324.101	21.05	
13243	1324.201	21.05	
13244	1324.301	21.05	
13245	1324.401	21	
13246	1324.501	21	
13247	1324.601	21	
13248	1324.701	21	
13249	1324.801	21	
13250	1324.901	21	
13251	1325.001	21	
13252	1325.101	21	
13253	1325.201	21.05	
13254	1325.301	21.05	
13255	1325.401	21	
13256	1325.501	21.05	
13257	1325.601	21	
13258	1325.701	21.05	
13259	1325.801	21	
13260	1325.901	21	
13261	1326.001	21	
13262	1326.101	21	
13263	1326.201	21.05	
13264	1326.301	21	
13265	1326.401	21.05	
13266	1326.501	21	
13267	1326.601	21	
13268	1326.701	21.05	
13269	1326.801	21	
13270	1326.901	21.05	
13271	1327.001	21	
13272	1327.101	21	
13273	1327.201	21	
13274	1327.301	21	
13275	1327.401	21	
13276	1327.501	21	
13277	1327.601	21	
13278	1327.701	21	
13279	1327.801	21.05	
13280	1327.901	21	
13281	1328.001	21	
13282	1328.101	21	
13283	1328.201	21	
13284	1328.301	21.05	
13285	1328.401	21	
13286	1328.501	21	
13287	1328.601	21	
13288	1328.701	21.05	
13289	1328.801	21	
13290	1328.901	21	
13291	1329.001	21	
13292	1329.101	21.05	
13293	1329.201	21	
13294	1329.301	21	
13295	1329.401	21	
13296	1329.501	21	
13297	1329.601	21	
13298	1329.701	21	
13299	1329.801	21	
13300	1329.901	21	
13301	1330.001	21	
13302	1330.101	21.05	
13303	1330.201	21	
13304	1330.301	21	
13305	1330.401	21	
13306	1330.501	21	
13307	1330.601	21.05	
13308	1330.701	21	
13309	1330.801	21	
13310	1330.901	21.05	
13311	1331.001	21	
13312	1331.101	21	
13313	1331.201	21	
13314	1331.301	21	
13315	1331.401	21	
13316	1331.501	21	
13317	1331.601	21	
13318	1331.701	21	
13319	1331.801	21	
13320	1331.901	21	
13321	1332.001	21	
13322	1332.101	21	
13323	1332.201	21	
13324	1332.301	21	
13325	1332.401	20.95	
13326	1332.501	21.05	
13327	1332.601	21.05	
13328	1332.701	21	
13329	1332.801	21	
13330	1332.901	21	
13331	1333.001	21.05	
13332	1333.101	21	
13333	1333.201	21	
13334	1333.301	21	
13335	1333.401	21	
13336	1333.501	21	
13337	1333.601	21	
13338	1333.701	21	
13339	1333.801	21	
13340	1333.901	21	
13341	1334.001	21	
13342	1334.101	21	
13343	1334.201	21	
13344	1334.301	21	
13345	1334.401	21	
13346	1334.501	21	
13347	1334.601	21	
13348	1334.701	21	
13349	1334.801	21	
13350	1334.901	21	
13351	1335.001	21	
13352	1335.101	21	
13353	1335.201	21	
13354	1335.301	21	
13355	1335.401	21	
13356	1335.501	21	
13357	1335.601	21	
13358	1335.701	21	
13359	1335.801	21	
13360	1335.901	21	
13361	1336.001	21.05	
13362	1336.101	21	
13363	1336.201	21	
13364	1336.301	21	
13365	1336.401	21	
13366	1336.501	21.05	
13367	1336.601	21	
13368	1336.701	21	
13369	1336.801	21	
13370	1336.901	21	
13371	1337.001	21	
13372	1337.101	21	
13373	1337.201	21	
13374	1337.301	21	
13375	1337.401	21	
13376	1337.501	21	
13377	1337.601	21.05	
13378	1337.701	21	
13379	1337.801	21	
13380	1337.901	21	
13381	1338.001	21	
13382	1338.101	21	
13383	1338.201	21	
13384	1338.301	21	
13385	1338.401	21	
13386	1338.501	21	
13387	1338.601	21	
13388	1338.701	21	
13389	1338.801	21	
13390	1338.901	21	
13391	1339.001	21	
13392	1339.101	21.05	
13393	1339.201	21	
13394	1339.301	21	
13395	1339.401	21	
13396	1339.501	21	
13397	1339.601	21	
13398	1339.701	21	
13399	1339.801	21	
13400	1339.901	21	
13401	1340.001	21	
13402	1340.101	21	
13403	1340.201	21	
13404	1340.301	21	
13405	1340.401	21	
13406	1340.501	21	
13407	1340.601	21	
13408	1340.701	21	
13409	1340.801	21	
13410	1340.901	21	
13411	1341.001	21	
13412	1341.101	21	
13413	1341.201	21	
13414	1341.301	21	
13415	1341.401	21	
13416	1341.501	21	
13417	1341.601	21	
13418	1341.701	21	
13419	1341.801	21	
13420	1341.901	21	
13421	1342.001	21	
13422	1342.101	21	
13423	1342.201	21	
13424	1342.301	21	
13425	1342.401	21	
13426	1342.501	21	
13427	1342.601	21	
13428	1342.701	21	
13429	1342.801	21	
13430	1342.901	21	
13431	1343.001	21	
13432	1343.101	21	
13433	1343.201	21	
13434	1343.301	21	
13435	1343.401	20.95	
13436	1343.501	21	
13437	1343.601	21	
13438	1343.701	21	
13439	1343.801	20.95	
13440	1343.901	21	
13441	1344.001	21	
13442	1344.101	21	
13443	1344.201	21	
13444	1344.301	21	
13445	1344.401	21	
13446	1344.501	21	
13447	1344.601	20.95	
13448	1344.701	20.95	
13449	1344.801	21	
13450	1344.901	21	
13451	1345.001	20.95	
13452	1345.101	21	
13453	1345.201	20.95	
13454	1345.301	21	
13455	1345.401	20.95	
13456	1345.501	21	
13457	1345.601	20.95	
13458	1345.701	20.95	
13459	1345.801	20.95	
13460	1345.904	21	
13461	1346.001	21	
13462	1346.101	21	
13463	1346.201	20.95	
13464	1346.301	21	
13465	1346.401	21	
13466	1346.501	20.95	
13467	1346.601	20.95	
13468	1346.701	20.95	
13469	1346.801	21	
13470	1346.901	20.95	
13471	1347.001	20.95	
13472	1347.101	21	
13473	1347.201	21	
13474	1347.301	20.95	
13475	1347.401	21	
13476	1347.501	20.95	
13477	1347.601	20.95	
13478	1347.701	20.95	
13479	1347.801	20.95	
13480	1347.901	21	
13481	1348.001	20.95	
13482	1348.101	20.95	
13483	1348.201	20.95	
13484	1348.301	20.95	
13485	1348.401	21	
13486	1348.501	21	
13487	1348.601	20.95	
13488	1348.701	21	
13489	1348.801	20.95	
13490	1348.901	20.95	
13491	1349.001	20.95	
13492	1349.101	21	
13493	1349.201	20.95	
13494	1349.301	21	
13495	1349.401	21	
13496	1349.501	21	
13497	1349.601	21	
13498	1349.701	21	
13499	1349.801	21	
13500	1349.901	20.95	
13501	1350.001	21	
13502	1350.101	21	
13503	1350.201	21	
13504	1350.301	20.95	
13505	1350.401	21	
13506	1350.501	21	
13507	1350.601	21	
13508	1350.701	20.95	
13509	1350.801	20.95	
13510	1350.901	20.95	
13511	1351.001	20.95	
13512	1351.101	20.95	
13513	1351.201	20.95	
13514	1351.301	20.95	
13515	1351.401	20.95	
13516	1351.501	20.95	
13517	1351.601	20.95	
13518	1351.701	20.95	
13519	1351.801	20.95	
13520	1351.901	20.95	
13521	1352.001	20.95	
13522	1352.101	20.95	
13523	1352.201	20.95	
13524	1352.301	20.95	
13525	1352.401	20.95	
13526	1352.501	20.95	
13527	1352.601	20.95	
13528	1352.701	20.95	
13529	1352.801	20.95	
13530	1352.901	20.95	
13531	1353.001	20.95	
13532	1353.101	20.95	
13533	1353.201	20.95	
13534	1353.301	20.95	
13535	1353.401	20.95	
13536	1353.501	20.95	
13537	1353.601	20.95	
13538	1353.701	20.95	
13539	1353.801	20.95	
13540	1353.901	20.95	
13541	1354.001	20.95	
13542	1354.101	20.95	
13543	1354.201	20.95	
13544	1354.301	21	
13545	1354.401	20.95	
13546	1354.501	20.95	
13547	1354.601	20.95	
13548	1354.701	20.95	
13549	1354.801	20.95	
13550	1354.901	20.95	
13551	1355.001	20.95	
13552	1355.101	20.95	
13553	1355.201	20.95	
13554	1355.301	20.95	
13555	1355.401	20.95	
13556	1355.501	20.95	
13557	1355.601	20.95	
13558	1355.701	20.95	
13559	1355.801	20.95	
13560	1355.901	20.95	
13561	1356.001	20.95	
13562	1356.101	20.95	
13563	1356.201	20.95	
13564	1356.301	20.95	
13565	1356.401	20.95	
13566	1356.501	20.95	
13567	1356.601	20.95	
13568	1356.701	20.95	
13569	1356.801	20.95	
13570	1356.901	20.95	
13571	1357.001	20.95	
13572	1357.101	20.95	
13573	1357.201	20.95	
13574	1357.301	20.95	
13575	1357.401	20.95	
13576	1357.501	20.95	
13577	1357.601	20.95	
13578	1357.701	20.95	
13579	1357.801	20.95	
13580	1357.901	20.95	
13581	1358.001	20.95	
13582	1358.101	20.95	
13583	1358.201	20.95	
13584	1358.301	20.95	
13585	1358.401	20.95	
13586	1358.501	20.95	
13587	1358.601	20.95	
13588	1358.701	20.95	
13589	1358.801	20.95	
13590	1358.901	20.95	
13591	1359.001	20.95	
13592	1359.101	20.95	
13593	1359.201	20.95	
13594	1359.301	20.95	
13595	1359.401	20.95	
13596	1359.501	20.95	
13597	1359.601	20.95	
13598	1359.701	20.95	
13599	1359.801	20.95	
13600	1359.901	20.95	
13601	1360.001	20.95	
13602	1360.101	21	
13603	1360.201	20.95	
13604	1360.301	20.95	
13605	1360.401	20.95	
13606	1360.501	20.95	
13607	1360.601	20.95	
13608	1360.701	20.95	
13609	1360.801	20.95	
13610	1360.901	20.95	
13611	1361.001	20.95	
13612	1361.101	20.95	
13613	1361.201	20.95	
13614	1361.301	20.95	
13615	1361.401	20.95	
13616	1361.501	20.95	
13617	1361.601	20.95	
13618	1361.701	20.95	
13619	1361.801	20.95	
13620	1361.901	20.95	
13621	1362.001	20.95	
13622	1362.101	20.95	
13623	1362.201	20.95	
13624	1362.301	20.95	
13625	1362.401	20.95	
13626	1362.501	20.95	
13627	1362.601	20.95	
13628	1362.701	20.95	
13629	1362.801	20.95	
13630	1362.901	20.95	
13631	1363.001	20.95	
13632	1363.101	20.95	
13633	1363.201	20.95	
13634	1363.301	20.95	
13635	1363.401	20.95	
13636	1363.501	20.95	
13637	1363.601	20.95	
13638	1363.701	20.95	
13639	1363.801	20.95	
13640	1363.901	20.95	
13641	1364.001	20.95	
13642	1364.101	20.95	
13643	1364.201	20.95	
13644	1364.301	20.95	
13645	1364.401	20.95	
13646	1364.501	20.9	
13647	1364.601	20.95	
13648	1364.701	20.95	
13649	1364.801	20.95	
13650	1364.901	20.95	
13651	1365.001	20.95	
13652	1365.101	20.95	
13653	1365.201	20.95	
13654	1365.301	20.95	
13655	1365.401	20.95	
13656	1365.501	20.95	
13657	1365.601	20.95	
13658	1365.701	20.95	
13659	1365.801	20.95	
13660	1365.901	20.95	
13661	1366.001	20.95	
13662	1366.101	20.95	
13663	1366.201	20.95	
13664	1366.301	20.95	
13665	1366.401	20.95	
13666	1366.501	20.95	
13667	1366.601	21	
13668	1366.701	20.95	
13669	1366.801	20.95	
13670	1366.901	20.95	
13671	1367.001	20.95	
13672	1367.101	20.95	
13673	1367.201	20.95	
13674	1367.301	20.95	
13675	1367.401	20.95	
13676	1367.501	20.95	
13677	1367.601	20.95	
13678	1367.701	20.95	
13679	1367.801	20.95	
13680	1367.901	20.95	
13681	1368.001	20.95	
13682	1368.101	20.95	
13683	1368.201	20.95	
13684	1368.301	20.95	
13685	1368.401	20.95	
13686	1368.501	20.95	
13687	1368.601	20.95	
13688	1368.701	20.95	
13689	1368.801	20.9	
13690	1368.901	20.95	
13691	1369.001	20.95	
13692	1369.101	20.95	
13693	1369.201	20.95	
13694	1369.301	20.95	
13695	1369.401	20.95	
13696	1369.501	20.95	
13697	1369.601	20.95	
13698	1369.701	20.95	
13699	1369.801	20.95	
13700	1369.901	20.95	
13701	1370.001	20.95	
13702	1370.101	20.95	
13703	1370.201	20.95	
13704	1370.301	20.95	
13705	1370.401	20.95	
13706	1370.501	20.9	
13707	1370.601	20.95	
13708	1370.701	20.95	
13709	1370.801	20.95	
13710	1370.901	20.95	
13711	1371.001	20.95	
13712	1371.101	20.95	
13713	1371.201	20.95	
13714	1371.301	20.95	
13715	1371.401	20.95	
13716	1371.501	20.95	
13717	1371.601	20.95	
13718	1371.701	20.95	
13719	1371.801	20.95	
13720	1371.901	20.95	
13721	1372.001	20.95	
13722	1372.101	20.95	
13723	1372.201	20.95	
13724	1372.301	20.9	
13725	1372.401	20.95	
13726	1372.501	20.95	
13727	1372.601	20.95	
13728	1372.701	20.95	
13729	1372.801	20.95	
13730	1372.901	20.9	
