# Spalte1: Wellenlänge [nm]
# Spalte2: Intensität [mV]
335	0.045075
336	0.046435
337	0.047829
338	0.049263
339	0.050741
340	0.052267
341	0.053842
342	0.055468
343	0.057145
344	0.058871
345	0.060642
346	0.062456
347	0.064307
348	0.066188
349	0.068092
350	0.070011
351	0.071934
352	0.073852
353	0.075756
354	0.077636
355	0.079482
356	0.081283
357	0.083029
358	0.084709
359	0.086322
360	0.087871
361	0.089356
362	0.090781
363	0.092147
364	0.093458
365	0.094716
366	0.095924
367	0.097084
368	0.098190
369	0.099240
370	0.100228
371	0.101152
372	0.102007
373	0.102789
374	0.103494
375	0.104119
376	0.104659
377	0.105112
378	0.105474
379	0.105742
380	0.105919
381	0.106005
382	0.106002
383	0.105913
384	0.105741
385	0.105488
386	0.105158
387	0.104754
388	0.104279
389	0.103737
390	0.103128
391	0.102454
392	0.101716
393	0.100916
394	0.100056
395	0.099138
396	0.098164
397	0.097139
398	0.096072
399	0.094981
400	0.093884
401	0.092797
402	0.091735
403	0.090712
404	0.089747
405	0.088856
406	0.088050
407	0.087333
408	0.086712
409	0.086190
410	0.085774
411	0.085468
412	0.085280
413	0.085214
414	0.085279
415	0.085356
416	0.085393
417	0.085534
418	0.086038
419	0.086611
420	0.087236
421	0.087896
422	0.088611
423	0.089560
424	0.090489
425	0.090992
426	0.091279
427	0.091642
428	0.092301
429	0.092845
430	0.093032
431	0.093037
432	0.092888
433	0.092572
434	0.092083
435	0.091661
436	0.091046
437	0.090020
438	0.088583
439	0.086865
440	0.084900
441	0.082733
442	0.080494
443	0.078226
444	0.076161
445	0.074502
446	0.073298
447	0.072577
448	0.072360
449	0.072591
450	0.073257
451	0.074471
452	0.076612
453	0.079348
454	0.082696
455	0.086680
456	0.091284
457	0.096285
458	0.101973
459	0.108379
460	0.115514
461	0.123409
462	0.132129
463	0.141555
464	0.151578
465	0.162043
466	0.172791
467	0.183668
468	0.194528
469	0.204843
470	0.214926
471	0.225253
472	0.235724
473	0.245692
474	0.253947
475	0.261902
476	0.269875
477	0.277886
478	0.285965
479	0.294220
480	0.302760
481	0.313025
482	0.324123
483	0.335334
484	0.346323
485	0.357589
486	0.368798
487	0.379596
488	0.390460
489	0.400913
490	0.409677
491	0.415573
492	0.422545
493	0.431214
494	0.440654
495	0.450759
496	0.462104
497	0.473705
498	0.485503
499	0.497439
500	0.509070
501	0.520128
502	0.531100
503	0.541927
504	0.552585
505	0.563618
506	0.574940
507	0.585895
508	0.595237
509	0.604326
510	0.613152
511	0.621704
512	0.630403
513	0.640069
514	0.649459
515	0.658561
516	0.667355
517	0.675800
518	0.683850
519	0.691461
520	0.698589
521	0.705191
522	0.710575
523	0.714797
524	0.718366
525	0.721247
526	0.723465
527	0.725198
528	0.726648
529	0.728351
530	0.731219
531	0.734687
532	0.737984
533	0.741581
534	0.745701
535	0.750150
536	0.753923
537	0.756081
538	0.758069
539	0.759414
540	0.760178
541	0.760878
542	0.761478
543	0.761951
544	0.764712
545	0.768433
546	0.771308
547	0.772095
548	0.772528
549	0.773043
550	0.773202
551	0.772852
552	0.772013
553	0.770810
554	0.767693
555	0.764398
556	0.760942
557	0.757112
558	0.753162
559	0.752393
560	0.750518
561	0.745091
562	0.737113
563	0.727481
564	0.716243
565	0.703505
566	0.690103
567	0.675373
568	0.658786
569	0.640217
570	0.620327
571	0.600352
572	0.578749
573	0.555112
574	0.529061
575	0.499970
576	0.465986
577	0.428168
578	0.386814
579	0.343654
580	0.302716
581	0.267647
582	0.236037
583	0.202115
584	0.159179
585	0.101220
586	0.062818
587	0.051126
588	0.049004
589	0.046408
590	0.042933
591	0.038796
592	0.034168
593	0.029243
594	0.024328
595	0.019661
596	0.015474
597	0.011933
598	0.009008
599	0.006628
600	0.004735
601	0.003258
602	0.002129
603	0.001281
604	0.000655
605	0.000192
606	-0.000152
607	-0.000388
608	-0.000525
609	-0.000571
610	-0.000534
611	-0.000417
612	-0.000227
613	0.000030
614	0.000346
615	0.000715
616	0.001127
617	0.001570
618	0.002040
619	0.002536
620	0.003055
621	0.003586
622	0.004123
623	0.004658
624	0.005188
625	0.005708
626	0.006208
627	0.006690
628	0.007142
629	0.007549
630	0.007917
631	0.008250
632	0.008542
633	0.008789
634	0.008984
635	0.009122
636	0.009213
637	0.009267
638	0.009276
639	0.009236
640	0.009157
641	0.009031
642	0.008864
643	0.008662
644	0.008429
645	0.008166
646	0.007891
647	0.007596
648	0.007273
649	0.006918
650	0.006545
651	0.006169
652	0.005783
653	0.005385
654	0.004979
655	0.004576
656	0.004180
657	0.003793
658	0.003418
659	0.003056
660	0.002712
661	0.002389
662	0.002088
663	0.001814
664	0.001568
665	0.001349
666	0.001158
667	0.001002
668	0.000882
669	0.000801
670	0.000757
671	0.000749
672	0.000772
673	0.000823
674	0.000900
675	0.001000
676	0.001120
677	0.001258
678	0.001411
679	0.001576
680	0.001749
681	0.001927
682	0.002108
683	0.002290
684	0.002470
685	0.002647
686	0.002817
687	0.002976
688	0.003125
689	0.003263
690	0.003391
691	0.003509
692	0.003616
693	0.003710
694	0.003794
695	0.003866
696	0.003928
697	0.003981
698	0.004029
699	0.004077
700	0.004137
701	0.004200
702	0.004257
703	0.004319
704	0.004393
705	0.004482
706	0.004588
707	0.004709
708	0.004843
709	0.004992
710	0.005154
711	0.005317
712	0.005467
713	0.005610
714	0.005741
715	0.005857
716	0.005953
717	0.006026
718	0.006074
719	0.006093
720	0.006081
721	0.006031
722	0.005939
723	0.005799
724	0.005610
725	0.005365
726	0.005063
727	0.004703
728	0.004281
729	0.003794
730	0.003245
731	0.002655
732	0.002043
733	0.001433
734	0.000846
735	0.000305
736	-0.000166
737	-0.000544
738	0.008735
739	0.008727
740	0.008871
