# Spalte1: Wellenlänge [nm]
# Spalte2: Intensität [mV]
335	-0.032860
336	-0.035486
337	-0.038212
338	-0.041035
339	-0.043952
340	-0.046956
341	-0.050035
342	-0.053174
343	-0.056358
344	-0.059570
345	-0.062792
346	-0.066004
347	-0.069186
348	-0.072315
349	-0.075368
350	-0.078321
351	-0.081150
352	-0.083829
353	-0.086332
354	-0.088635
355	-0.090710
356	-0.092531
357	-0.094070
358	-0.095302
359	-0.096203
360	-0.096747
361	-0.096912
362	-0.096673
363	-0.096003
364	-0.094879
365	-0.093273
366	-0.091159
367	-0.088507
368	-0.085287
369	-0.081468
370	-0.077039
371	-0.072023
372	-0.066452
373	-0.060358
374	-0.053778
375	-0.046751
376	-0.039319
377	-0.031528
378	-0.023424
379	-0.015060
380	-0.006487
381	0.002238
382	0.011057
383	0.019908
384	0.028727
385	0.037448
386	0.046006
387	0.054330
388	0.062352
389	0.070001
390	0.077229
391	0.084023
392	0.090377
393	0.096287
394	0.101749
395	0.106762
396	0.111326
397	0.115444
398	0.119131
399	0.122416
400	0.125329
401	0.127901
402	0.130164
403	0.132152
404	0.133896
405	0.135429
406	0.136780
407	0.137981
408	0.139060
409	0.140047
410	0.140969
411	0.141856
412	0.142728
413	0.143576
414	0.144380
415	0.144917
416	0.145098
417	0.145179
418	0.145604
419	0.145883
420	0.145992
421	0.145913
422	0.145692
423	0.145635
424	0.145335
425	0.144171
426	0.142518
427	0.140863
428	0.139554
429	0.137984
430	0.135832
431	0.133401
432	0.130771
433	0.127966
434	0.125017
435	0.122287
436	0.119461
437	0.116305
438	0.112938
439	0.109592
440	0.106137
441	0.102404
442	0.098605
443	0.094997
444	0.091779
445	0.089119
446	0.087103
447	0.085639
448	0.084605
449	0.083815
450	0.083155
451	0.082675
452	0.082711
453	0.082919
454	0.083393
455	0.084186
456	0.085286
457	0.086315
458	0.087304
459	0.088124
460	0.088734
461	0.089127
462	0.089316
463	0.089196
464	0.088741
465	0.087924
466	0.086723
467	0.085116
468	0.083122
469	0.080635
470	0.077902
471	0.075161
472	0.072414
473	0.069509
474	0.066192
475	0.062907
476	0.059738
477	0.056693
478	0.053784
479	0.051040
480	0.048489
481	0.046355
482	0.044456
483	0.042662
484	0.040927
485	0.039335
486	0.037868
487	0.036509
488	0.035346
489	0.034377
490	0.033534
491	0.032688
492	0.031972
493	0.031374
494	0.030882
495	0.030510
496	0.030289
497	0.030144
498	0.030070
499	0.030059
500	0.030081
501	0.030121
502	0.030206
503	0.030328
504	0.030482
505	0.030693
506	0.030951
507	0.031221
508	0.031436
509	0.031670
510	0.031923
511	0.032193
512	0.032503
513	0.032898
514	0.033319
515	0.033767
516	0.034245
517	0.034758
518	0.035307
519	0.035896
520	0.036528
521	0.037207
522	0.037900
523	0.038609
524	0.039361
525	0.040156
526	0.040989
527	0.041859
528	0.042761
529	0.043728
530	0.044822
531	0.046019
532	0.047271
533	0.048618
534	0.050102
535	0.051755
536	0.053540
537	0.055386
538	0.057384
539	0.059501
540	0.061751
541	0.064171
542	0.066750
543	0.069472
544	0.072551
545	0.075868
546	0.079234
547	0.082490
548	0.085777
549	0.089132
550	0.092538
551	0.096018
552	0.099609
553	0.103352
554	0.107030
555	0.110844
556	0.114794
557	0.118871
558	0.123144
559	0.128212
560	0.133429
561	0.138361
562	0.143156
563	0.147964
564	0.152741
565	0.157510
566	0.162660
567	0.168218
568	0.174125
569	0.180389
570	0.187231
571	0.195120
572	0.203777
573	0.213260
574	0.223644
575	0.234919
576	0.246463
577	0.259030
578	0.273027
579	0.288056
580	0.303577
581	0.319145
582	0.334855
583	0.350886
584	0.366776
585	0.382259
586	0.397239
587	0.411704
588	0.425105
589	0.437919
590	0.450797
591	0.463736
592	0.476250
593	0.487775
594	0.499348
595	0.511183
596	0.523453
597	0.536307
598	0.549887
599	0.563601
600	0.577825
601	0.592023
602	0.605679
603	0.618547
604	0.631170
605	0.642828
606	0.654253
607	0.665519
608	0.676665
609	0.687945
610	0.701298
611	0.714145
612	0.725002
613	0.734148
614	0.742203
615	0.749311
616	0.755613
617	0.759758
618	0.762961
619	0.766231
620	0.770080
621	0.773767
622	0.777279
623	0.780584
624	0.784362
625	0.788533
626	0.792478
627	0.796921
628	0.800984
629	0.803435
630	0.804928
631	0.806180
632	0.807279
633	0.808313
634	0.809366
635	0.810523
636	0.812467
637	0.815588
638	0.818666
639	0.820772
640	0.822632
641	0.823528
642	0.823428
643	0.822914
644	0.821912
645	0.820349
646	0.819580
647	0.818708
648	0.816343
649	0.811320
650	0.804762
651	0.797778
652	0.789083
653	0.777445
654	0.762184
655	0.744065
656	0.722885
657	0.698503
658	0.670532
659	0.639025
660	0.604309
661	0.566479
662	0.526173
663	0.484693
664	0.442193
665	0.398666
666	0.354288
667	0.310831
668	0.269144
669	0.230039
670	0.194223
671	0.162097
672	0.133701
673	0.109279
674	0.089148
675	0.072865
676	0.059867
677	0.049618
678	0.041569
679	0.035163
680	0.029822
681	0.025092
682	0.020932
683	0.017410
684	0.014613
685	0.012650
686	0.011445
687	0.010769
688	0.010380
689	0.010106
690	0.009915
691	0.009793
692	0.009722
693	0.009673
694	0.009622
695	0.009542
696	0.009425
697	0.009277
698	0.009106
699	0.008925
700	0.008756
701	0.008582
702	0.008383
703	0.008185
704	0.008001
705	0.007838
706	0.007701
707	0.007601
708	0.007547
709	0.007559
710	0.007644
711	0.007797
712	0.008002
713	0.008267
714	0.008592
715	0.008977
716	0.009413
717	0.009879
718	0.010354
719	0.010815
720	0.011262
721	0.011709
722	0.012165
723	0.012605
724	0.012996
725	0.013312
726	0.013552
727	0.013715
728	0.013800
729	0.013796
730	0.013698
731	0.013496
732	0.013178
733	0.012731
734	0.012145
735	0.011399
736	0.010469
737	0.009327
738	0.007949
739	0.006307
740	0.011170
