# Spalte1: Wellenlänge [nm]
# Spalte2: Intensität [mV]
335	-0.008807
336	-0.009355
337	-0.009892
338	-0.010417
339	-0.010928
340	-0.011425
341	-0.011905
342	-0.012369
343	-0.012816
344	-0.013244
345	-0.013649
346	-0.014027
347	-0.014372
348	-0.014681
349	-0.014948
350	-0.015169
351	-0.015339
352	-0.015463
353	-0.015551
354	-0.015608
355	-0.015634
356	-0.015626
357	-0.015586
358	-0.015513
359	-0.015407
360	-0.015267
361	-0.015094
362	-0.014887
363	-0.014646
364	-0.014372
365	-0.014065
366	-0.013724
367	-0.013350
368	-0.012944
369	-0.012505
370	-0.012035
371	-0.011533
372	-0.011002
373	-0.010440
374	-0.009850
375	-0.009231
376	-0.008587
377	-0.007917
378	-0.007223
379	-0.006507
380	-0.005771
381	-0.005016
382	-0.004245
383	-0.003459
384	-0.002660
385	-0.001851
386	-0.001032
387	-0.000204
388	0.000629
389	0.001466
390	0.002307
391	0.003147
392	0.003986
393	0.004822
394	0.005652
395	0.006473
396	0.007286
397	0.008090
398	0.008884
399	0.009670
400	0.010449
401	0.011222
402	0.011992
403	0.012760
404	0.013530
405	0.014303
406	0.015082
407	0.015868
408	0.016663
409	0.017469
410	0.018287
411	0.019120
412	0.019968
413	0.020834
414	0.021720
415	0.022598
416	0.023451
417	0.024319
418	0.025276
419	0.026242
420	0.027209
421	0.028170
422	0.029128
423	0.030142
424	0.031125
425	0.031932
426	0.032624
427	0.033303
428	0.034048
429	0.034710
430	0.035197
431	0.035571
432	0.035843
433	0.036012
434	0.036076
435	0.036134
436	0.036089
437	0.035863
438	0.035482
439	0.035018
440	0.034478
441	0.033879
442	0.033274
443	0.032662
444	0.032046
445	0.031439
446	0.030852
447	0.030293
448	0.029768
449	0.029253
450	0.028740
451	0.028274
452	0.027984
453	0.027729
454	0.027504
455	0.027307
456	0.027123
457	0.026882
458	0.026665
459	0.026470
460	0.026295
461	0.026148
462	0.026039
463	0.025946
464	0.025868
465	0.025804
466	0.025754
467	0.025717
468	0.025691
469	0.025624
470	0.025567
471	0.025581
472	0.025654
473	0.025717
474	0.025655
475	0.025614
476	0.025619
477	0.025665
478	0.025748
479	0.025873
480	0.026046
481	0.026383
482	0.026799
483	0.027232
484	0.027667
485	0.028170
486	0.028744
487	0.029395
488	0.030189
489	0.031123
490	0.032130
491	0.033093
492	0.034146
493	0.035296
494	0.036579
495	0.037971
496	0.039490
497	0.041099
498	0.042852
499	0.044807
500	0.046988
501	0.049413
502	0.052160
503	0.055252
504	0.058713
505	0.062625
506	0.067007
507	0.071806
508	0.076872
509	0.082384
510	0.088364
511	0.094836
512	0.101894
513	0.109712
514	0.118073
515	0.126914
516	0.136171
517	0.145782
518	0.155679
519	0.165794
520	0.176060
521	0.186411
522	0.196748
523	0.207369
524	0.218726
525	0.231115
526	0.244820
527	0.260115
528	0.277261
529	0.296635
530	0.318754
531	0.343313
532	0.369195
533	0.395977
534	0.423352
535	0.450904
536	0.477668
537	0.502746
538	0.527814
539	0.553588
540	0.581213
541	0.612192
542	0.647201
543	0.685851
544	0.729876
545	0.777767
546	0.827221
547	0.876118
548	0.925553
549	0.975393
550	1.024461
551	1.072220
552	1.118767
553	1.164581
554	1.207647
555	1.250984
556	1.295352
557	1.340729
558	1.387231
559	1.440792
560	1.493238
561	1.539024
562	1.580053
563	1.618787
564	1.655677
565	1.691568
566	1.729068
567	1.766551
568	1.802352
569	1.835601
570	1.867585
571	1.901981
572	1.935532
573	1.968694
574	2.002083
575	2.035113
576	2.061508
577	2.086595
578	2.113202
579	2.138485
580	2.159766
581	2.175702
582	2.188725
583	2.201507
584	2.212550
585	2.221691
586	2.229321
587	2.235836
588	2.238781
589	2.241268
590	2.246674
591	2.254008
592	2.259213
593	2.257983
594	2.253942
595	2.246846
596	2.236511
597	2.224709
598	2.214028
599	2.203253
600	2.194431
601	2.185595
602	2.175016
603	2.161934
604	2.147926
605	2.130424
606	2.112061
607	2.093181
608	2.073969
609	2.055221
610	2.043103
611	2.030694
612	2.014823
613	1.997282
614	1.979831
615	1.962569
616	1.945608
617	1.925468
618	1.905406
619	1.887924
620	1.873948
621	1.860816
622	1.847826
623	1.834239
624	1.820941
625	1.806986
626	1.790220
627	1.771544
628	1.748248
629	1.716947
630	1.678279
631	1.632847
632	1.579844
633	1.518870
634	1.450106
635	1.373796
636	1.291280
637	1.203319
638	1.108531
639	1.007656
640	0.904302
641	0.800204
642	0.697920
643	0.600335
644	0.509484
645	0.427401
646	0.356110
647	0.294504
648	0.241299
649	0.195584
650	0.157060
651	0.125164
652	0.098862
653	0.077284
654	0.059687
655	0.045423
656	0.033782
657	0.024413
658	0.017085
659	0.011584
660	0.007696
661	0.005198
662	0.003867
663	0.003489
664	0.003845
665	0.004716
666	0.005879
667	0.007128
668	0.008250
669	0.009098
670	0.009682
671	0.010037
672	0.010176
673	0.010114
674	0.009888
675	0.009524
676	0.009048
677	0.008488
678	0.007870
679	0.007222
680	0.006567
681	0.005938
682	0.005359
683	0.004840
684	0.004376
685	0.003966
686	0.003605
687	0.003287
688	0.003009
689	0.002771
690	0.002573
691	0.002411
692	0.002282
693	0.002185
694	0.002118
695	0.002078
696	0.002064
697	0.002073
698	0.002103
699	0.002153
700	0.002227
701	0.002318
702	0.002415
703	0.002521
704	0.002636
705	0.002756
706	0.002879
707	0.003002
708	0.003122
709	0.003241
710	0.003358
711	0.003467
712	0.003564
713	0.003656
714	0.003746
715	0.003833
716	0.003921
717	0.004009
718	0.004099
719	0.004192
720	0.004290
721	0.004394
722	0.004504
723	0.004622
724	0.004750
725	0.004887
726	0.005035
727	0.005195
728	0.005368
729	0.005550
730	0.005747
731	0.005958
732	0.006188
733	0.006444
734	0.006735
735	0.007067
736	0.007431
737	0.007816
738	0.008223
739	0.008655
740	0.018507
