# Spalte1: Wellenlänge [nm]
# Spalte2: Intensität [mV]
335	-0.000223
336	-0.000318
337	-0.000416
338	-0.000517
339	-0.000620
340	-0.000724
341	-0.000830
342	-0.000936
343	-0.001042
344	-0.001146
345	-0.001250
346	-0.001352
347	-0.001451
348	-0.001547
349	-0.001640
350	-0.001728
351	-0.001812
352	-0.001891
353	-0.001964
354	-0.002031
355	-0.002092
356	-0.002146
357	-0.002193
358	-0.002232
359	-0.002263
360	-0.002286
361	-0.002300
362	-0.002305
363	-0.002301
364	-0.002288
365	-0.002265
366	-0.002231
367	-0.002188
368	-0.002133
369	-0.002067
370	-0.001990
371	-0.001901
372	-0.001800
373	-0.001686
374	-0.001559
375	-0.001419
376	-0.001266
377	-0.001098
378	-0.000917
379	-0.000721
380	-0.000511
381	-0.000287
382	-0.000049
383	0.000204
384	0.000472
385	0.000753
386	0.001048
387	0.001356
388	0.001676
389	0.002009
390	0.002354
391	0.002709
392	0.003075
393	0.003449
394	0.003832
395	0.004221
396	0.004617
397	0.005020
398	0.005431
399	0.005849
400	0.006276
401	0.006714
402	0.007163
403	0.007626
404	0.008104
405	0.008600
406	0.009113
407	0.009646
408	0.010199
409	0.010772
410	0.011368
411	0.011988
412	0.012632
413	0.013303
414	0.014001
415	0.014705
416	0.015405
417	0.016127
418	0.016924
419	0.017742
420	0.018580
421	0.019436
422	0.020313
423	0.021256
424	0.022208
425	0.023065
426	0.023872
427	0.024701
428	0.025616
429	0.026505
430	0.027295
431	0.028033
432	0.028723
433	0.029362
434	0.029945
435	0.030551
436	0.031088
437	0.031468
438	0.031694
439	0.031812
440	0.031818
441	0.031708
442	0.031515
443	0.031265
444	0.031018
445	0.030832
446	0.030745
447	0.030742
448	0.030802
449	0.030897
450	0.031032
451	0.031266
452	0.031764
453	0.032402
454	0.033249
455	0.034385
456	0.035827
457	0.037454
458	0.039339
459	0.041459
460	0.043821
461	0.046459
462	0.049415
463	0.052670
464	0.056240
465	0.060141
466	0.064390
467	0.069004
468	0.074003
469	0.079238
470	0.084865
471	0.091110
472	0.097979
473	0.105233
474	0.112329
475	0.119777
476	0.127597
477	0.135676
478	0.143928
479	0.152322
480	0.160833
481	0.170165
482	0.179792
483	0.189218
484	0.198193
485	0.207079
486	0.215806
487	0.224325
488	0.233126
489	0.242156
490	0.250863
491	0.258293
492	0.265485
493	0.272445
494	0.279181
495	0.285915
496	0.293037
497	0.299926
498	0.306549
499	0.312873
500	0.318626
501	0.323671
502	0.328353
503	0.332674
504	0.336630
505	0.340558
506	0.344403
507	0.347773
508	0.349940
509	0.351726
510	0.353131
511	0.354165
512	0.355093
513	0.356386
514	0.357359
515	0.358028
516	0.358406
517	0.358516
518	0.358387
519	0.358052
520	0.357539
521	0.356856
522	0.355660
523	0.353991
524	0.352109
525	0.350001
526	0.347656
527	0.345066
528	0.342225
529	0.339310
530	0.336781
531	0.334442
532	0.332058
533	0.330161
534	0.328956
535	0.328281
536	0.327566
537	0.326214
538	0.324794
539	0.323129
540	0.321342
541	0.319744
542	0.318403
543	0.317386
544	0.317770
545	0.319020
546	0.320280
547	0.320902
548	0.321476
549	0.322058
550	0.322346
551	0.322161
552	0.321472
553	0.321230
554	0.321289
555	0.322012
556	0.323148
557	0.324626
558	0.326633
559	0.330706
560	0.335091
561	0.338769
562	0.342236
563	0.345958
564	0.349903
565	0.353973
566	0.358487
567	0.363021
568	0.367174
569	0.370724
570	0.373894
571	0.377359
572	0.380289
573	0.382556
574	0.384060
575	0.384556
576	0.382854
577	0.380034
578	0.376673
579	0.372263
580	0.366207
581	0.358175
582	0.348676
583	0.338269
584	0.326840
585	0.314499
586	0.301427
587	0.287697
588	0.273000
589	0.257743
590	0.242318
591	0.226659
592	0.210430
593	0.193456
594	0.176462
595	0.159791
596	0.143781
597	0.128782
598	0.114995
599	0.102308
600	0.090747
601	0.080148
602	0.070395
603	0.061434
604	0.053282
605	0.045852
606	0.039185
607	0.033242
608	0.027977
609	0.023343
610	0.019339
611	0.015818
612	0.012700
613	0.009954
614	0.007553
615	0.005476
616	0.003704
617	0.002215
618	0.000998
619	0.000034
620	-0.000703
621	-0.001237
622	-0.001591
623	-0.001787
624	-0.001851
625	-0.001801
626	-0.001656
627	-0.001439
628	-0.001166
629	-0.000855
630	-0.000530
631	-0.000210
632	0.000084
633	0.000334
634	0.000534
635	0.000687
636	0.000798
637	0.000873
638	0.000913
639	0.000921
640	0.000903
641	0.000860
642	0.000797
643	0.000720
644	0.000630
645	0.000533
646	0.000432
647	0.000329
648	0.000228
649	0.000132
650	0.000044
651	-0.000035
652	-0.000108
653	-0.000174
654	-0.000232
655	-0.000285
656	-0.000331
657	-0.000372
658	-0.000407
659	-0.000437
660	-0.000463
661	-0.000483
662	-0.000500
663	-0.000513
664	-0.000524
665	-0.000530
666	-0.000532
667	-0.000532
668	-0.000530
669	-0.000525
670	-0.000519
671	-0.000513
672	-0.000505
673	-0.000496
674	-0.000486
675	-0.000475
676	-0.000463
677	-0.000451
678	-0.000438
679	-0.000424
680	-0.000409
681	-0.000393
682	-0.000377
683	-0.000361
684	-0.000343
685	-0.000326
686	-0.000308
687	-0.000290
688	-0.000271
689	-0.000252
690	-0.000233
691	-0.000213
692	-0.000194
693	-0.000174
694	-0.000153
695	-0.000133
696	-0.000114
697	-0.000094
698	-0.000074
699	-0.000054
700	-0.000034
701	-0.000014
702	0.000007
703	0.000028
704	0.000050
705	0.000072
706	0.000094
707	0.000117
708	0.000140
709	0.000165
710	0.000192
711	0.000218
712	0.000244
713	0.000270
714	0.000298
715	0.000327
716	0.000357
717	0.000388
718	0.000418
719	0.000447
720	0.000475
721	0.000503
722	0.000530
723	0.000556
724	0.000579
725	0.000601
726	0.000621
727	0.000638
728	0.000652
729	0.000664
730	0.000672
731	0.000677
732	0.000677
733	0.000674
734	0.000667
735	0.009056
736	0.009062
737	0.009056
738	0.009038
739	0.009011
740	0.008979
