# Spalte1: Wellenlänge [nm]
# Spalte2: Intensität [mV]
335	0.006550
336	0.006948
337	0.007351
338	0.007756
339	0.008164
340	0.008573
341	0.008984
342	0.009394
343	0.009805
344	0.010214
345	0.010621
346	0.011026
347	0.011429
348	0.011829
349	0.012226
350	0.012620
351	0.013009
352	0.013395
353	0.013777
354	0.014154
355	0.014527
356	0.014895
357	0.015259
358	0.015618
359	0.015972
360	0.016321
361	0.016666
362	0.017006
363	0.017342
364	0.017673
365	0.018000
366	0.018323
367	0.018641
368	0.018956
369	0.019266
370	0.019573
371	0.019877
372	0.020178
373	0.020474
374	0.020767
375	0.021053
376	0.021333
377	0.021606
378	0.021871
379	0.022127
380	0.022372
381	0.022607
382	0.022829
383	0.023039
384	0.023235
385	0.023417
386	0.023584
387	0.023737
388	0.023874
389	0.023995
390	0.024100
391	0.024189
392	0.024262
393	0.024318
394	0.024357
395	0.024380
396	0.024386
397	0.024379
398	0.024363
399	0.024343
400	0.024322
401	0.024305
402	0.024297
403	0.024299
404	0.024317
405	0.024353
406	0.024412
407	0.024495
408	0.024607
409	0.024744
410	0.024904
411	0.025085
412	0.025284
413	0.025498
414	0.025727
415	0.025930
416	0.026093
417	0.026262
418	0.026519
419	0.026778
420	0.027034
421	0.027286
422	0.027541
423	0.027858
424	0.028161
425	0.028320
426	0.028401
427	0.028493
428	0.028663
429	0.028783
430	0.028777
431	0.028699
432	0.028559
433	0.028354
434	0.028084
435	0.027826
436	0.027504
437	0.027064
438	0.026534
439	0.025977
440	0.025402
441	0.024820
442	0.024259
443	0.023714
444	0.023179
445	0.022659
446	0.022159
447	0.021689
448	0.021262
449	0.020864
450	0.020495
451	0.020191
452	0.020051
453	0.019968
454	0.019920
455	0.019892
456	0.019864
457	0.019789
458	0.019727
459	0.019681
460	0.019651
461	0.019645
462	0.019672
463	0.019719
464	0.019784
465	0.019870
466	0.019976
467	0.020104
468	0.020253
469	0.020382
470	0.020533
471	0.020755
472	0.021040
473	0.021332
474	0.021530
475	0.021750
476	0.022008
477	0.022295
478	0.022604
479	0.022935
480	0.023276
481	0.023719
482	0.024172
483	0.024565
484	0.024868
485	0.025128
486	0.025335
487	0.025480
488	0.025611
489	0.025710
490	0.025712
491	0.025536
492	0.025323
493	0.025099
494	0.024886
495	0.024709
496	0.024582
497	0.024431
498	0.024234
499	0.023973
500	0.023618
501	0.023157
502	0.022614
503	0.021987
504	0.021276
505	0.020542
506	0.019859
507	0.019282
508	0.018850
509	0.018684
510	0.018854
511	0.019429
512	0.020491
513	0.022134
514	0.024387
515	0.027315
516	0.030981
517	0.035444
518	0.040763
519	0.046992
520	0.054183
521	0.062384
522	0.071577
523	0.081785
524	0.093090
525	0.105533
526	0.119374
527	0.135078
528	0.153105
529	0.173973
530	0.198302
531	0.226051
532	0.256252
533	0.288351
534	0.321909
535	0.356580
536	0.391756
537	0.426476
538	0.460980
539	0.494587
540	0.527036
541	0.558466
542	0.588695
543	0.617574
544	0.647220
545	0.676833
546	0.704557
547	0.728596
548	0.749854
549	0.768138
550	0.782611
551	0.793629
552	0.802397
553	0.810119
554	0.816024
555	0.821910
556	0.827663
557	0.833113
558	0.838680
559	0.848272
560	0.857331
561	0.863201
562	0.867125
563	0.870343
564	0.873008
565	0.875280
566	0.878356
567	0.881584
568	0.884387
569	0.886635
570	0.889245
571	0.894103
572	0.899427
573	0.905098
574	0.911077
575	0.917001
576	0.920278
577	0.923681
578	0.928831
579	0.934771
580	0.940326
581	0.944814
582	0.949198
583	0.954521
584	0.959957
585	0.965251
586	0.970391
587	0.975369
588	0.978930
589	0.982248
590	0.986745
591	0.992271
592	0.997385
593	1.000491
594	1.003348
595	1.005943
596	1.008264
597	1.010457
598	1.012934
599	1.015329
600	1.018821
601	1.022727
602	1.026429
603	1.029704
604	1.033343
605	1.036096
606	1.039103
607	1.042403
608	1.045974
609	1.050156
610	1.058102
611	1.066266
612	1.072897
613	1.078823
614	1.084898
615	1.091089
616	1.097324
617	1.101211
618	1.104010
619	1.106638
620	1.109245
621	1.110265
622	1.109363
623	1.106213
624	1.101501
625	1.094813
626	1.085006
627	1.072870
628	1.057076
629	1.035893
630	1.010020
631	0.980127
632	0.946046
633	0.907825
634	0.865850
635	0.820464
636	0.772668
637	0.723131
638	0.671174
639	0.616796
640	0.561339
641	0.505143
642	0.449212
643	0.394753
644	0.342529
645	0.293319
646	0.248283
647	0.207463
648	0.170909
649	0.138893
650	0.111634
651	0.088808
652	0.069750
653	0.053911
654	0.040834
655	0.030181
656	0.021682
657	0.015096
658	0.010178
659	0.006693
660	0.004408
661	0.003083
662	0.002481
663	0.002368
664	0.002512
665	0.002678
666	0.002719
667	0.002652
668	0.002505
669	0.002304
670	0.002079
671	0.001856
672	0.001658
673	0.001504
674	0.001393
675	0.001323
676	0.001291
677	0.001295
678	0.001332
679	0.001398
680	0.001489
681	0.001602
682	0.001734
683	0.001881
684	0.002041
685	0.002211
686	0.002388
687	0.002567
688	0.002745
689	0.002920
690	0.003089
691	0.003248
692	0.003394
693	0.003523
694	0.003638
695	0.003738
696	0.003826
697	0.003901
698	0.003964
699	0.004018
700	0.004074
701	0.004120
702	0.004145
703	0.004160
704	0.004168
705	0.004170
706	0.004168
707	0.004162
708	0.004153
709	0.004147
710	0.004145
711	0.004141
712	0.004129
713	0.004116
714	0.004104
715	0.004092
716	0.004083
717	0.004080
718	0.004084
719	0.004092
720	0.004102
721	0.004115
722	0.004136
723	0.004168
724	0.004212
725	0.004268
726	0.004333
727	0.004402
728	0.004466
729	0.004518
730	0.004551
731	0.004560
732	0.004540
733	0.004484
734	0.004386
735	0.004231
736	0.004013
737	0.012125
738	0.011857
739	0.011507
740	0.000000
