# Spalte1: Wellenlänge [nm]
# Spalte2: Intensität [mV]
335	0.002567
336	0.002474
337	0.002387
338	0.002311
339	0.002250
340	0.002210
341	0.002195
342	0.002211
343	0.002263
344	0.002356
345	0.002495
346	0.002680
347	0.002913
348	0.003194
349	0.003523
350	0.003900
351	0.004324
352	0.004794
353	0.005310
354	0.005869
355	0.006470
356	0.007111
357	0.007789
358	0.008501
359	0.009246
360	0.010020
361	0.010820
362	0.011643
363	0.012485
364	0.013342
365	0.014210
366	0.015086
367	0.015964
368	0.016839
369	0.017705
370	0.018557
371	0.019388
372	0.020192
373	0.020961
374	0.021689
375	0.022369
376	0.022992
377	0.023553
378	0.024048
379	0.024477
380	0.024842
381	0.025141
382	0.025375
383	0.025545
384	0.025652
385	0.025698
386	0.025683
387	0.025610
388	0.025482
389	0.025300
390	0.025067
391	0.024784
392	0.024454
393	0.024077
394	0.023658
395	0.023198
396	0.022700
397	0.022168
398	0.021605
399	0.021022
400	0.020430
401	0.019837
402	0.019254
403	0.018688
404	0.018147
405	0.017641
406	0.017176
407	0.016758
408	0.016382
409	0.016041
410	0.015727
411	0.015438
412	0.015180
413	0.014965
414	0.014802
415	0.014676
416	0.014584
417	0.014553
418	0.014632
419	0.014775
420	0.014984
421	0.015251
422	0.015576
423	0.015985
424	0.016430
425	0.016830
426	0.017214
427	0.017629
428	0.018113
429	0.018581
430	0.018976
431	0.019325
432	0.019626
433	0.019872
434	0.020054
435	0.020222
436	0.020313
437	0.020274
438	0.020102
439	0.019834
440	0.019470
441	0.019024
442	0.018544
443	0.018049
444	0.017559
445	0.017094
446	0.016670
447	0.016295
448	0.015972
449	0.015685
450	0.015426
451	0.015202
452	0.015091
453	0.015040
454	0.015065
455	0.015181
456	0.015395
457	0.015683
458	0.016105
459	0.016630
460	0.017159
461	0.017648
462	0.018167
463	0.018829
464	0.019640
465	0.020591
466	0.021673
467	0.022875
468	0.024181
469	0.025522
470	0.026946
471	0.028539
472	0.030315
473	0.032217
474	0.034105
475	0.036158
476	0.038409
477	0.040855
478	0.043492
479	0.046330
480	0.049376
481	0.052862
482	0.056629
483	0.060529
484	0.064486
485	0.068617
486	0.072901
487	0.077314
488	0.082019
489	0.087007
490	0.092084
491	0.096948
492	0.102103
493	0.107699
494	0.113882
495	0.120777
496	0.128563
497	0.136987
498	0.146020
499	0.155469
500	0.164868
501	0.173789
502	0.182329
503	0.190678
504	0.199042
505	0.207836
506	0.217262
507	0.227307
508	0.237671
509	0.248962
510	0.260940
511	0.273027
512	0.284871
513	0.296956
514	0.309213
515	0.321477
516	0.333098
517	0.343456
518	0.352395
519	0.360190
520	0.367280
521	0.374119
522	0.380879
523	0.388207
524	0.396998
525	0.407354
526	0.418567
527	0.429813
528	0.441367
529	0.455270
530	0.472864
531	0.492903
532	0.513270
533	0.532916
534	0.550832
535	0.566754
536	0.580956
537	0.593542
538	0.605691
539	0.616880
540	0.627105
541	0.636713
542	0.645590
543	0.653608
544	0.662756
545	0.671822
546	0.679152
547	0.683551
548	0.686471
549	0.688104
550	0.687858
551	0.686953
552	0.687101
553	0.687952
554	0.686943
555	0.684580
556	0.680038
557	0.672541
558	0.663233
559	0.657712
560	0.653070
561	0.646808
562	0.639487
563	0.631613
564	0.622815
565	0.613564
566	0.605247
567	0.597697
568	0.590458
569	0.583035
570	0.574765
571	0.565822
572	0.555236
573	0.543189
574	0.529776
575	0.514949
576	0.497704
577	0.480188
578	0.463726
579	0.448233
580	0.433550
581	0.419747
582	0.407486
583	0.397306
584	0.388646
585	0.381162
586	0.374622
587	0.368824
588	0.363335
589	0.358771
590	0.355686
591	0.353851
592	0.352571
593	0.351120
594	0.349956
595	0.348940
596	0.348017
597	0.347218
598	0.346649
599	0.346129
600	0.346007
601	0.345999
602	0.345880
603	0.345591
604	0.345443
605	0.345068
606	0.344886
607	0.344906
608	0.345215
609	0.346198
610	0.348978
611	0.351868
612	0.353650
613	0.354181
614	0.353915
615	0.353108
616	0.352016
617	0.350183
618	0.347906
619	0.345216
620	0.341936
621	0.337813
622	0.333369
623	0.329105
624	0.325594
625	0.322506
626	0.319220
627	0.315786
628	0.311993
629	0.307571
630	0.302960
631	0.298587
632	0.294486
633	0.290541
634	0.286632
635	0.282646
636	0.278705
637	0.274855
638	0.270649
639	0.266165
640	0.262019
641	0.257854
642	0.253455
643	0.248732
644	0.243409
645	0.237412
646	0.231145
647	0.224360
648	0.216696
649	0.207776
650	0.197764
651	0.187126
652	0.175878
653	0.164276
654	0.152841
655	0.142262
656	0.132295
657	0.122211
658	0.111222
659	0.098780
660	0.085235
661	0.071321
662	0.057769
663	0.045363
664	0.034746
665	0.026202
666	0.019480
667	0.014365
668	0.010564
669	0.007798
670	0.005861
671	0.004575
672	0.003757
673	0.003231
674	0.002837
675	0.002500
676	0.002215
677	0.001976
678	0.001780
679	0.001621
680	0.001495
681	0.001398
682	0.001326
683	0.001274
684	0.001242
685	0.001226
686	0.001221
687	0.001224
688	0.001232
689	0.001246
690	0.001265
691	0.001290
692	0.001318
693	0.001349
694	0.001383
695	0.001420
696	0.001461
697	0.001506
698	0.001554
699	0.001606
700	0.001666
701	0.001727
702	0.001785
703	0.001843
704	0.001901
705	0.001960
706	0.002020
707	0.002079
708	0.002138
709	0.002200
710	0.002264
711	0.002328
712	0.002386
713	0.002442
714	0.002496
715	0.002548
716	0.002598
717	0.002643
718	0.002685
719	0.002724
720	0.002758
721	0.002790
722	0.002817
723	0.002841
724	0.002862
725	0.002879
726	0.002890
727	0.002896
728	0.002898
729	0.002895
730	0.002888
731	0.002878
732	0.002865
733	0.002850
734	0.002835
735	0.002818
736	0.002799
737	0.009746
738	0.009713
739	0.009675
740	0.009633
