# Spalte1: Wellenlänge [nm]
# Spalte2: Intensität [mV]
335	-0.014934
336	-0.015324
337	-0.015688
338	-0.016027
339	-0.016343
340	-0.016635
341	-0.016905
342	-0.017155
343	-0.017385
344	-0.017596
345	-0.017790
346	-0.017968
347	-0.018132
348	-0.018282
349	-0.018421
350	-0.018549
351	-0.018668
352	-0.018779
353	-0.018885
354	-0.018986
355	-0.019083
356	-0.019180
357	-0.019276
358	-0.019374
359	-0.019475
360	-0.019580
361	-0.019692
362	-0.019811
363	-0.019939
364	-0.020077
365	-0.020224
366	-0.020380
367	-0.020546
368	-0.020721
369	-0.020905
370	-0.021097
371	-0.021298
372	-0.021507
373	-0.021724
374	-0.021948
375	-0.022178
376	-0.022414
377	-0.022656
378	-0.022902
379	-0.023153
380	-0.023406
381	-0.023661
382	-0.023918
383	-0.024175
384	-0.024432
385	-0.024687
386	-0.024940
387	-0.025189
388	-0.025433
389	-0.025671
390	-0.025903
391	-0.026127
392	-0.026342
393	-0.026548
394	-0.026742
395	-0.026925
396	-0.027094
397	-0.027250
398	-0.027391
399	-0.027517
400	-0.027628
401	-0.027729
402	-0.027826
403	-0.027924
404	-0.028026
405	-0.028139
406	-0.028265
407	-0.028410
408	-0.028578
409	-0.028770
410	-0.028982
411	-0.029212
412	-0.029456
413	-0.029711
414	-0.029973
415	-0.030196
416	-0.030362
417	-0.030521
418	-0.030766
419	-0.030992
420	-0.031192
421	-0.031359
422	-0.031501
423	-0.031682
424	-0.031810
425	-0.031745
426	-0.031567
427	-0.031381
428	-0.031267
429	-0.031086
430	-0.030765
431	-0.030369
432	-0.029912
433	-0.029396
434	-0.028824
435	-0.028275
436	-0.027671
437	-0.026950
438	-0.026103
439	-0.025151
440	-0.024077
441	-0.022877
442	-0.021612
443	-0.020329
444	-0.019064
445	-0.017849
446	-0.016703
447	-0.015637
448	-0.014655
449	-0.013736
450	-0.012858
451	-0.012024
452	-0.011277
453	-0.010546
454	-0.009822
455	-0.009094
456	-0.008343
457	-0.007534
458	-0.006677
459	-0.005752
460	-0.004738
461	-0.003619
462	-0.002380
463	-0.001000
464	0.000533
465	0.002231
466	0.004105
467	0.006162
468	0.008409
469	0.010825
470	0.013426
471	0.016250
472	0.019315
473	0.022583
474	0.025936
475	0.029486
476	0.033265
477	0.037272
478	0.041509
479	0.045986
480	0.050727
481	0.056000
482	0.061688
483	0.067660
484	0.073842
485	0.080387
486	0.087291
487	0.094546
488	0.102361
489	0.110721
490	0.119368
491	0.127857
492	0.136743
493	0.146127
494	0.156128
495	0.166971
496	0.178887
497	0.191472
498	0.204563
499	0.217674
500	0.230177
501	0.241797
502	0.253053
503	0.264797
504	0.277880
505	0.293202
506	0.310764
507	0.329394
508	0.347768
509	0.366179
510	0.384474
511	0.402844
512	0.421678
513	0.441032
514	0.459446
515	0.476562
516	0.492456
517	0.507347
518	0.521458
519	0.534877
520	0.547612
521	0.559666
522	0.570996
523	0.583292
524	0.597060
525	0.611051
526	0.624273
527	0.636815
528	0.648794
529	0.660523
530	0.674983
531	0.692792
532	0.710701
533	0.726803
534	0.741259
535	0.755833
536	0.770455
537	0.783426
538	0.795318
539	0.805025
540	0.812386
541	0.817774
542	0.821291
543	0.823703
544	0.828486
545	0.834621
546	0.834418
547	0.829430
548	0.826323
549	0.823041
550	0.816589
551	0.807100
552	0.798885
553	0.792446
554	0.785576
555	0.779511
556	0.773908
557	0.768385
558	0.763049
559	0.760954
560	0.757474
561	0.751633
562	0.746633
563	0.742512
564	0.737900
565	0.731725
566	0.725375
567	0.719281
568	0.713461
569	0.707889
570	0.703140
571	0.700432
572	0.698170
573	0.696066
574	0.693863
575	0.691180
576	0.686236
577	0.681352
578	0.677920
579	0.675366
580	0.672755
581	0.669461
582	0.666034
583	0.663056
584	0.659814
585	0.656066
586	0.651870
587	0.647310
588	0.641654
589	0.635779
590	0.630677
591	0.626249
592	0.621291
593	0.614465
594	0.606597
595	0.597605
596	0.588520
597	0.580685
598	0.573991
599	0.567287
600	0.560771
601	0.554402
602	0.547997
603	0.541334
604	0.534691
605	0.527279
606	0.519541
607	0.511240
608	0.501934
609	0.491340
610	0.480451
611	0.467146
612	0.450997
613	0.434011
614	0.418900
615	0.405454
616	0.392005
617	0.376164
618	0.356876
619	0.332601
620	0.303704
621	0.273178
622	0.244586
623	0.220433
624	0.200318
625	0.183028
626	0.167302
627	0.152395
628	0.137998
629	0.123740
630	0.108939
631	0.095452
632	0.082967
633	0.071385
634	0.060703
635	0.050966
636	0.042319
637	0.034833
638	0.028407
639	0.022952
640	0.018414
641	0.014671
642	0.011627
643	0.009197
644	0.007286
645	0.005806
646	0.004677
647	0.003801
648	0.003090
649	0.002505
650	0.002041
651	0.001690
652	0.001439
653	0.001276
654	0.001190
655	0.001173
656	0.001215
657	0.001304
658	0.001431
659	0.001584
660	0.001755
661	0.001931
662	0.002102
663	0.002261
664	0.002397
665	0.002508
666	0.002590
667	0.002652
668	0.002695
669	0.002721
670	0.002734
671	0.002738
672	0.002731
673	0.002711
674	0.002682
675	0.002644
676	0.002596
677	0.002542
678	0.002481
679	0.002417
680	0.002350
681	0.002282
682	0.002218
683	0.002160
684	0.002106
685	0.002058
686	0.002016
687	0.001980
688	0.001952
689	0.001937
690	0.001933
691	0.001940
692	0.001953
693	0.001968
694	0.001985
695	0.002008
696	0.002040
697	0.002075
698	0.002112
699	0.002152
700	0.002198
701	0.002245
702	0.002286
703	0.002327
704	0.002368
705	0.002407
706	0.002443
707	0.002474
708	0.002497
709	0.002516
710	0.002529
711	0.002534
712	0.002527
713	0.002512
714	0.002488
715	0.002453
716	0.002408
717	0.002349
718	0.002275
719	0.002187
720	0.002083
721	0.001967
722	0.001843
723	0.001715
724	0.001589
725	0.001467
726	0.001355
727	0.001255
728	0.001173
729	0.001111
730	0.001075
731	0.001069
732	0.001097
733	0.001163
734	0.001273
735	0.001429
736	-0.010824
737	-0.010910
738	-0.010999
739	-0.011090
740	0.000000
