# Spalte1: Wellenlänge [nm]
# Spalte2: Intensität [mV]
335	-0.000236
336	-0.000982
337	-0.001671
338	-0.002283
339	-0.002810
340	-0.003248
341	-0.003592
342	-0.003837
343	-0.003981
344	-0.004022
345	-0.003959
346	-0.003792
347	-0.003522
348	-0.003151
349	-0.002682
350	-0.002121
351	-0.001471
352	-0.000739
353	0.000067
354	0.000939
355	0.001869
356	0.002845
357	0.003857
358	0.004893
359	0.005941
360	0.006988
361	0.008023
362	0.009031
363	0.009999
364	0.010913
365	0.011758
366	0.012522
367	0.013187
368	0.013739
369	0.014163
370	0.014461
371	0.014651
372	0.014754
373	0.014789
374	0.014779
375	0.014746
376	0.014712
377	0.014702
378	0.014742
379	0.014854
380	0.015050
381	0.015325
382	0.015675
383	0.016095
384	0.016581
385	0.017127
386	0.017727
387	0.018375
388	0.019064
389	0.019787
390	0.020536
391	0.021301
392	0.022065
393	0.022812
394	0.023524
395	0.024183
396	0.024789
397	0.025361
398	0.025921
399	0.026491
400	0.027093
401	0.027734
402	0.028409
403	0.029114
404	0.029841
405	0.030586
406	0.031333
407	0.032061
408	0.032746
409	0.033365
410	0.033907
411	0.034373
412	0.034763
413	0.035087
414	0.035358
415	0.035538
416	0.035613
417	0.035645
418	0.035747
419	0.035797
420	0.035793
421	0.035731
422	0.035624
423	0.035548
424	0.035407
425	0.035050
426	0.034575
427	0.034103
428	0.033722
429	0.033290
430	0.032733
431	0.032129
432	0.031502
433	0.030863
434	0.030228
435	0.029696
436	0.029198
437	0.028681
438	0.028173
439	0.027735
440	0.027371
441	0.027085
442	0.026904
443	0.026815
444	0.026808
445	0.026886
446	0.027050
447	0.027303
448	0.027644
449	0.028045
450	0.028496
451	0.029036
452	0.029809
453	0.030679
454	0.031649
455	0.032718
456	0.033868
457	0.035007
458	0.036232
459	0.037541
460	0.038932
461	0.040415
462	0.042009
463	0.043679
464	0.045421
465	0.047232
466	0.049106
467	0.051042
468	0.053034
469	0.054964
470	0.056933
471	0.059080
472	0.061383
473	0.063683
474	0.065675
475	0.067713
476	0.069858
477	0.072101
478	0.074435
479	0.076876
480	0.079442
481	0.082503
482	0.085811
483	0.089098
484	0.092188
485	0.095179
486	0.097962
487	0.100424
488	0.102715
489	0.105280
490	0.108612
491	0.112049
492	0.115527
493	0.118964
494	0.122367
495	0.125838
496	0.129569
497	0.133311
498	0.137080
499	0.140897
500	0.144683
501	0.148403
502	0.152241
503	0.156224
504	0.160369
505	0.164850
506	0.169659
507	0.174620
508	0.179368
509	0.184319
510	0.189479
511	0.194852
512	0.200520
513	0.206666
514	0.212818
515	0.218888
516	0.224789
517	0.230437
518	0.235738
519	0.240559
520	0.245005
521	0.249322
522	0.253514
523	0.257832
524	0.262673
525	0.268232
526	0.275283
527	0.285859
528	0.301377
529	0.322090
530	0.346351
531	0.365674
532	0.376520
533	0.381920
534	0.385095
535	0.388990
536	0.394934
537	0.402246
538	0.411289
539	0.421482
540	0.432362
541	0.443645
542	0.454733
543	0.465021
544	0.475419
545	0.484578
546	0.490859
547	0.493216
548	0.492770
549	0.491396
550	0.491345
551	0.492284
552	0.493799
553	0.495500
554	0.495929
555	0.495796
556	0.495116
557	0.493993
558	0.492838
559	0.494011
560	0.494867
561	0.493980
562	0.492255
563	0.490519
564	0.488887
565	0.487463
566	0.486897
567	0.486752
568	0.486641
569	0.486427
570	0.486553
571	0.488028
572	0.489878
573	0.491978
574	0.494235
575	0.496382
576	0.496949
577	0.497398
578	0.498624
579	0.500166
580	0.501419
581	0.502047
582	0.502588
583	0.503613
584	0.504709
585	0.505808
586	0.507009
587	0.508406
588	0.509284
589	0.510018
590	0.511102
591	0.512209
592	0.512293
593	0.510232
594	0.506658
595	0.502051
596	0.501866
597	0.501243
598	0.499468
599	0.497388
600	0.496059
601	0.495428
602	0.495044
603	0.494607
604	0.494354
605	0.493602
606	0.492849
607	0.492070
608	0.491207
609	0.490373
610	0.490872
611	0.490718
612	0.488776
613	0.485121
614	0.480168
615	0.474523
616	0.467178
617	0.457955
618	0.449014
619	0.442047
620	0.437794
621	0.435127
622	0.433298
623	0.431582
624	0.429659
625	0.427011
626	0.424090
627	0.422255
628	0.420383
629	0.416502
630	0.410260
631	0.403307
632	0.397157
633	0.391663
634	0.385516
635	0.378544
636	0.371250
637	0.363962
638	0.356073
639	0.347069
640	0.337161
641	0.325950
642	0.313346
643	0.299544
644	0.284698
645	0.269037
646	0.253236
647	0.237241
648	0.220935
649	0.204350
650	0.188125
651	0.172810
652	0.158408
653	0.144948
654	0.132141
655	0.119716
656	0.107198
657	0.094077
658	0.079621
659	0.063326
660	0.046230
661	0.032772
662	0.024845
663	0.019519
664	0.015276
665	0.011948
666	0.009412
667	0.007578
668	0.006315
669	0.005495
670	0.004988
671	0.004668
672	0.004412
673	0.004182
674	0.003980
675	0.003807
676	0.003661
677	0.003543
678	0.003449
679	0.003377
680	0.003322
681	0.003283
682	0.003260
683	0.003250
684	0.003251
685	0.003264
686	0.003287
687	0.003314
688	0.003344
689	0.003375
690	0.003405
691	0.003431
692	0.003450
693	0.003461
694	0.003463
695	0.003455
696	0.003434
697	0.003400
698	0.003349
699	0.003282
700	0.003203
701	0.003101
702	0.002965
703	0.002798
704	0.002603
705	0.002377
706	0.002127
707	0.001866
708	0.001605
709	0.001361
710	0.001144
711	0.000965
712	0.000837
713	0.000773
714	0.000788
715	0.000895
716	0.001106
717	0.001434
718	0.001871
719	0.002394
720	0.002976
721	0.003594
722	0.004220
723	0.004827
724	0.005391
725	0.005887
726	0.006286
727	0.006567
728	0.006727
729	0.006774
730	0.006720
731	0.006575
732	0.006352
733	0.006062
734	0.005718
735	0.005330
736	0.010859
737	0.010414
738	0.000000
739	0.000000
740	0.000000
