# Spalte1: Wellenlänge [nm]
# Spalte2: Intensität [mV]
335	0.032546
336	0.032850
337	0.033560
338	0.034688
339	0.036119
340	0.037782
341	0.039559
342	0.041203
343	0.042681
344	0.043974
345	0.045256
346	0.046403
347	0.047491
348	0.048843
349	0.050241
350	0.051612
351	0.053005
352	0.054418
353	0.055869
354	0.057341
355	0.058834
356	0.060376
357	0.061946
358	0.063537
359	0.065148
360	0.066785
361	0.068441
362	0.070117
363	0.071583
364	0.073057
365	0.074554
366	0.076093
367	0.077781
368	0.079505
369	0.081268
370	0.083074
371	0.084914
372	0.086790
373	0.088697
374	0.090633
375	0.092593
376	0.094612
377	0.096673
378	0.098747
379	0.100828
380	0.102947
381	0.105095
382	0.107235
383	0.109362
384	0.111440
385	0.113329
386	0.115184
387	0.117011
388	0.118894
389	0.120728
390	0.122488
391	0.124169
392	0.125785
393	0.127331
394	0.129096
395	0.130780
396	0.132337
397	0.133486
398	0.134269
399	0.134763
400	0.134942
401	0.135099
402	0.135580
403	0.136458
404	0.137625
405	0.139030
406	0.140789
407	0.142761
408	0.144789
409	0.146542
410	0.148348
411	0.150256
412	0.152587
413	0.154982
414	0.157391
415	0.159769
416	0.162142
417	0.164682
418	0.167910
419	0.171245
420	0.174583
421	0.177891
422	0.181134
423	0.184706
424	0.188137
425	0.190575
426	0.192452
427	0.194389
428	0.196806
429	0.198813
430	0.199903
431	0.200539
432	0.200697
433	0.200134
434	0.198817
435	0.197362
436	0.195239
437	0.192053
438	0.187961
439	0.183393
440	0.178622
441	0.173790
442	0.169156
443	0.164695
444	0.160278
445	0.155976
446	0.151855
447	0.147989
448	0.144210
449	0.140576
450	0.136893
451	0.133314
452	0.130551
453	0.127919
454	0.125457
455	0.123245
456	0.121219
457	0.119113
458	0.117323
459	0.115773
460	0.114338
461	0.112931
462	0.111521
463	0.109931
464	0.108100
465	0.106047
466	0.103843
467	0.101551
468	0.099237
469	0.096738
470	0.094308
471	0.092161
472	0.090195
473	0.088122
474	0.085517
475	0.082865
476	0.080272
477	0.077803
478	0.075467
479	0.073257
480	0.071160
481	0.069450
482	0.067882
483	0.066267
484	0.064537
485	0.062829
486	0.061117
487	0.059372
488	0.057721
489	0.056148
490	0.054533
491	0.052719
492	0.050952
493	0.049246
494	0.047624
495	0.046126
496	0.044786
497	0.043536
498	0.042355
499	0.041199
500	0.040031
501	0.038834
502	0.037646
503	0.036466
504	0.035309
505	0.034219
506	0.033194
507	0.032212
508	0.031211
509	0.030261
510	0.029355
511	0.028485
512	0.027661
513	0.026909
514	0.026165
515	0.025425
516	0.024695
517	0.023979
518	0.023296
519	0.022649
520	0.022046
521	0.021489
522	0.020952
523	0.020428
524	0.019927
525	0.019435
526	0.018943
527	0.018444
528	0.017935
529	0.017415
530	0.016918
531	0.016492
532	0.016101
533	0.015746
534	0.015427
535	0.015136
536	0.014859
537	0.014575
538	0.014309
539	0.014051
540	0.013803
541	0.013576
542	0.013368
543	0.013177
544	0.013040
545	0.012934
546	0.012828
547	0.012698
548	0.012573
549	0.012463
550	0.012358
551	0.012256
552	0.012155
553	0.012056
554	0.011933
555	0.011810
556	0.011687
557	0.011565
558	0.011452
559	0.011404
560	0.011362
561	0.011294
562	0.011221
563	0.011164
564	0.011114
565	0.011050
566	0.010965
567	0.010855
568	0.010735
569	0.010626
570	0.010552
571	0.010536
572	0.010538
573	0.010536
574	0.010512
575	0.010451
576	0.010361
577	0.010291
578	0.010255
579	0.010240
580	0.010227
581	0.010206
582	0.010184
583	0.010171
584	0.010154
585	0.010130
586	0.010102
587	0.010073
588	0.010032
589	0.009994
590	0.009976
591	0.009974
592	0.009974
593	0.009959
594	0.009944
595	0.009930
596	0.009914
597	0.009896
598	0.009879
599	0.009860
600	0.009849
601	0.009840
602	0.009826
603	0.009806
604	0.009789
605	0.009764
606	0.009743
607	0.009724
608	0.009707
609	0.009696
610	0.009719
611	0.009742
612	0.009750
613	0.009749
614	0.009748
615	0.009747
616	0.009742
617	0.009711
618	0.009669
619	0.009625
620	0.009587
621	0.009547
622	0.009509
623	0.009474
624	0.009452
625	0.009441
626	0.009431
627	0.009433
628	0.009434
629	0.009421
630	0.009400
631	0.009376
632	0.009351
633	0.009323
634	0.009293
635	0.009261
636	0.009235
637	0.009220
638	0.009204
639	0.009178
640	0.009151
641	0.009116
642	0.009074
643	0.009032
644	0.008992
645	0.008953
646	0.008931
647	0.008919
648	0.008903
649	0.008875
650	0.008848
651	0.008838
652	0.008833
653	0.008823
654	0.008803
655	0.008785
656	0.008769
657	0.008754
658	0.008738
659	0.008719
660	0.008703
661	0.008688
662	0.008676
663	0.008677
664	0.008687
665	0.008694
666	0.008682
667	0.008674
668	0.008667
669	0.008664
670	0.008670
671	0.008689
672	0.008712
673	0.008729
674	0.008749
675	0.008771
676	0.008798
677	0.008827
678	0.008859
679	0.008894
680	0.008926
681	0.008957
682	0.008990
683	0.009024
684	0.009061
685	0.009105
686	0.009152
687	0.009196
688	0.009235
689	0.009274
690	0.009313
691	0.009350
692	0.009384
693	0.009414
694	0.009443
695	0.009470
696	0.009495
697	0.009519
698	0.009541
699	0.009567
700	0.009618
701	0.009666
702	0.009683
703	0.009689
704	0.009692
705	0.009691
706	0.009687
707	0.009679
708	0.009667
709	0.009665
710	0.009672
711	0.009675
712	0.009658
713	0.009640
714	0.009621
715	0.009601
716	0.009581
717	0.009562
718	0.009544
719	0.009530
720	0.009520
721	0.009516
722	0.009517
723	0.009526
724	0.009545
725	0.009573
726	0.009611
727	0.009661
728	0.009722
729	0.009793
730	0.009878
731	0.009978
732	0.010095
733	0.010230
734	0.010387
735	0.010565
736	0.010764
737	0.010986
738	0.011227
739	0.011496
740	0.011791
