#INFO
#COMMENT: test UV led 375nm - chaos

#DATA:
-0.43963194	-2.777e-005	
-0.43962983	-6.7103e-005	
-0.43963405	-6.287e-005	
-0.43963194	-5.16e-007	
-0.43963194	4.0365e-005	
-0.439633	4.0984e-005	
-0.43963194	3.7474e-005	
-0.43963194	6.0392e-005	
-0.43963405	3.8403e-005	
-0.43963194	1.9718e-005	
-0.43963405	2.9422e-005	
-0.43963194	4.6765e-005	
-0.4396235	-0.004415148	
-0.43963194	-0.000242292	
-0.43955594	-6.3386e-005	
-0.43952955	-7.639e-006	
-0.43940182	1.724e-005	
-0.43915058	2.3434e-005	
-0.43890568	1.435e-005	
-0.43854783	5.471e-006	
-0.43804853	-7.123e-006	
-0.43767167	-3.7681e-005	
-0.43725576	-2.2299e-005	
-0.43680713	6.091e-006	
-0.43644822	2.5396e-005	
-0.43608087	2.8802e-005	
-0.43564174	4.026e-006	
-0.43534722	6.3489e-005	
-0.43511921	6.607e-005	
-0.43494398	1.9511e-005	
-0.43476452	1.4143e-005	
-0.43453862	1.786e-005	
-0.43418816	3.6855e-005	
-0.43374058	6.607e-006	
-0.43335423	1.5588e-005	
-0.43291615	2.0028e-005	
-0.43244746	1.8273e-005	
-0.43185526	1.3937e-005	
-0.43121556	7.743e-006	
-0.43073737	6.917e-006	
-0.43033202	7.639e-006	
-0.42991188	1.8892e-005	
-0.4293503	1.4556e-005	
-0.42876024	1.0943e-005	
-0.42802976	3.82e-006	
-0.42736895	1.7963e-005	
-0.42669441	2.0544e-005	
-0.42628695	1.8169e-005	
-0.42584148	1.4143e-005	
-0.42542135	1.9615e-005	
-0.42488827	1.7137e-005	
-0.42433724	2.5602e-005	
-0.42379782	2.457e-005	
-0.42340091	6.318e-005	
-0.42311379	0.000123469	
-0.42278443	0.00013978	
-0.42232841	9.4666e-005	
-0.42188294	0.000166827	
-0.42158104	0.00026552	
-0.42130764	0.000130076	
-0.42077983	5.2443e-005	
-0.42029425	5.6056e-005	
-0.41996701	5.0688e-005	
-0.41968833	3.9539e-005	
-0.4193537	4.563e-005	
-0.41867706	3.4377e-005	
-0.41810386	3.5513e-005	
-0.41754544	3.9849e-005	
-0.41715064	3.5513e-005	
-0.41686563	2.2092e-005	
-0.41648561	2.1266e-005	
-0.4163336	5.0895e-005	
-0.41616154	4.6249e-005	
-0.41573929	3.9745e-005	
-0.41505526	1.022e-005	
-0.41448206	2.7357e-005	
-0.41393737	3.8197e-005	
-0.41331033	2.0544e-005	
-0.41215866	4.3152e-005	
-0.41131629	2.8802e-005	
-0.41017939	4.2946e-005	
-0.40931379	1.693e-005	
-0.40852948	2.8493e-005	
-0.4079278	2.4983e-005	
-0.40753722	3.4274e-005	
-0.40708859	3.3655e-005	
-0.40663468	3.4687e-005	
-0.406413	3.3758e-005	
-0.40627577	2.4983e-005	
-0.40615121	2.9422e-005	
-0.40594008	2.9009e-005	
-0.40568568	3.8919e-005	
-0.40547667	3.19e-005	
-0.40528244	7.846e-006	
-0.40511354	8.775e-006	
-0.4048887	2.1989e-005	
-0.40457518	4.7591e-005	
-0.40420783	5.3063e-005	
-0.40398932	3.8816e-005	
-0.40387003	4.0262e-005	
-0.40380142	3.9023e-005	
-0.40371064	2.5086e-005	
-0.40355441	2.3021e-005	
-0.40332428	4.883e-005	
-0.4029316	3.5926e-005	
-0.40257902	4.1913e-005	
-0.40230034	5.4611e-005	
-0.40203327	3.9849e-005	
-0.40162792	3.6958e-005	
-0.40121834	4.0674e-005	
-0.40083621	5.6263e-005	
-0.40042241	4.2533e-005	
-0.40008989	4.3049e-005	
-0.39977321	4.5423e-005	
-0.39950086	4.1191e-005	
-0.39920318	3.4687e-005	
-0.3986891	3.8919e-005	
-0.39805362	3.1383e-005	
-0.39756385	3.5513e-005	
-0.39705821	3.448e-005	
-0.39651352	3.448e-005	
-0.39603427	3.5616e-005	
-0.39562891	3.9745e-005	
-0.39519823	3.7577e-005	
-0.39468626	3.9849e-005	
-0.39409511	3.3448e-005	
-0.39355781	4.0778e-005	
-0.39293711	3.8094e-005	
-0.3923903	3.3551e-005	
-0.39188783	3.2003e-005	
-0.39147298	3.0145e-005	
-0.39105073	3.2312e-005	
-0.39064538	3.7268e-005	
-0.39023264	2.8699e-005	
-0.38975972	3.3551e-005	
-0.38938604	4.0262e-005	
-0.38909891	3.861e-005	
-0.38871889	3.4584e-005	
-0.38832409	5.4611e-005	
-0.38784379	4.5114e-005	
-0.38741732	3.6752e-005	
-0.38723787	4.4804e-005	
-0.38707953	3.5203e-005	
-0.3868853	4.5939e-005	
-0.38662139	3.3345e-005	
-0.38641555	3.3551e-005	
-0.38612631	4.3049e-005	
-0.3857294	4.9449e-005	
-0.38540428	3.6545e-005	
-0.38501792	4.5527e-005	
-0.38428111	3.8507e-005	
-0.3836868	3.8197e-005	
-0.38299326	5.6676e-005	
-0.38223956	4.4804e-005	
-0.38163786	5.8431e-005	
-0.38118606	5.0791e-005	
-0.38075642	4.5217e-005	
-0.38042285	4.3978e-005	
-0.38005761	5.616e-005	
-0.37960053	5.7708e-005	
-0.37908117	4.8107e-005	
-0.37850059	4.1604e-005	
-0.37771943	3.6648e-005	
-0.37644217	3.2003e-005	
-0.37512054	2.777e-005	
-0.37451673	3.9745e-005	
-0.37383586	3.0454e-005	
-0.37346007	3.8094e-005	
-0.37290693	5.3992e-005	
-0.37235907	5.0585e-005	
-0.37168348	5.0688e-005	
-0.37104589	6.3902e-005	
-0.37031646	6.256e-005	
-0.3695522	0.000137612	
-0.36909406	7.309e-005	
-0.36852509	9.4976e-005	
-0.36789067	5.7192e-005	
-0.36733014	6.1115e-005	
-0.36679706	5.967e-005	
-0.36624394	5.8431e-005	
-0.36565385	1.4556e-005	
-0.36509015	-0.000259532	
-0.36469325	-0.00014298	
-0.36426044	-0.000276566	
-0.36370519	-0.000183551	
-0.36314889	-0.000396318	
-0.36249652	-0.000227116	
-0.36140396	-0.000141122	
-0.35996939	4.15e-005	
-0.35853798	0.000265933	
-0.3567445	0.000500792	
-0.35536482	0.000176635	
-0.35446861	0.000176944	
-0.35361145	6.989e-005	
-0.3526519	0.000110564	
-0.35146539	5.7502e-005	
-0.35022294	2.0028e-005	
-0.34914728	-1.0014e-005	
-0.34683021	-0.000533207	
-0.34425138	-0.00075671	
-0.3422985	-6.3386e-005	
-0.33997932	0.000248383	
-0.33723051	0.000104474	
-0.33383041	0.000142464	
-0.33024345	-7.9078e-005	
-0.32768676	-0.000158775	
-0.32588906	0.000122849	
-0.32395624	0.000393221	
-0.32199597	0.000731831	
-0.32010748	0.00024384	
-0.31822638	0.000131418	
-0.31653319	0.000132657	
-0.31442197	8.9504e-005	
-0.3122907	6.8651e-005	
-0.30987968	8.8885e-005	
-0.30663791	0.000114591	
-0.30363575	0.000102615	
-0.30110547	7.8871e-005	
-0.2980442	8.8988e-005	
-0.29430312	5.9153e-005	
-0.29129041	5.4921e-005	
-0.28812252	6.4212e-005	
-0.28545183	4.3152e-005	
-0.28369213	4.2739e-005	
-0.28136241	6.0702e-005	
-0.27981172	5.3063e-005	
-0.2781998	5.5231e-005	
-0.27658788	5.3476e-005	
-0.27518287	4.2429e-005	
-0.27307481	5.5953e-005	
-0.27150512	4.0571e-005	
-0.26996287	5.2546e-005	
-0.26840374	5.936e-005	
-0.26737135	4.8211e-005	
-0.26591039	6.0496e-005	
-0.26415385	4.2636e-005	
-0.26324075	4.6043e-005	
-0.26226748	3.0248e-005	
-0.26168161	6.0496e-005	
-0.26072524	5.3063e-005	
-0.25942156	8.4962e-005	
-0.25834062	5.9153e-005	
-0.25756685	5.4611e-005	
-0.25728395	4.7385e-005	
-0.25726495	5.7398e-005	
-0.25725017	5.8224e-005	
-0.25721006	7.1955e-005	
-0.25674559	5.3889e-005	
-0.25622201	5.203e-005	
-0.25540391	4.9759e-005	
-0.25485288	5.3063e-005	
-0.25461009	5.9463e-005	
-0.25422268	5.6056e-005	
-0.25363999	5.6263e-005	
-0.25266671	5.5127e-005	
-0.25169872	6.0186e-005	
-0.25055971	5.265e-005	
-0.24908714	5.7089e-005	
-0.24799564	5.0482e-005	
-0.24747839	7.0716e-005	
-0.246389	5.554e-005	
-0.2449597	4.6352e-005	
-0.24368769	5.3372e-005	
-0.24266586	6.3386e-005	
-0.24190688	5.6986e-005	
-0.2409315	4.0468e-005	
-0.24000996	5.7708e-005	
-0.23910636	4.7901e-005	
-0.23786812	5.8121e-005	
-0.23669745	4.4081e-005	
-0.23521749	-5.265e-006	
-0.23418616	-2.1473e-005	
-0.23406793	2.746e-005	
-0.23404893	1.2182e-005	
-0.23404048	-0.000117997	
-0.23403415	-0.000471989	
-0.23403204	-3.799e-005	
-0.23402993	1.2904e-005	
-0.23402887	1.8376e-005	
-0.23402781	3.0351e-005	
-0.2340257	0.000169511	
-0.23402359	-0.000981865	
-0.23402148	-0.001031007	
-0.23401726	-0.001343808	
-0.23402148	0.000402615	
-0.23402887	0.002596251	
-0.2340257	0.00086841	
-0.23401937	6.9477e-005	
-0.23401937	-8.682e-005	
-0.23401937	-1.4866e-005	
-0.23401937	2.1989e-005	
-0.23401726	-1.7653e-005	
-0.23401726	-3.613e-006	
-0.23401726	-4.7591e-005	
-0.23401515	-5.9153e-005	
-0.23401515	-9.291e-006	
-0.23401726	1.5898e-005	
-0.23401409	4.0158e-005	
-0.23401726	8.465e-006	
-0.23401726	8.878e-006	
-0.23401937	2.5705e-005	
-0.23401409	1.1769e-005	
-0.23394337	9.704e-006	
-0.23388109	3.304e-006	
-0.23368157	-1.858e-006	
-0.23303449	6.504e-006	
-0.23239479	3.407e-006	
-0.23166536	-2.374e-006	
-0.23089476	-3.51e-006	
-0.2298645	2.4673e-005	
-0.22894928	2.6015e-005	
-0.22819875	9.085e-006	
-0.22767727	1.2491e-005	
-0.22710936	1.053e-005	
-0.22653088	8.052e-006	
-0.22577612	1.1459e-005	
-0.22506253	-5.884e-006	
-0.2240597	-2.478e-006	
-0.22322471	1.4763e-005	
-0.22260296	2.3538e-005	
-0.22198648	1.9202e-005	
-0.22139956	1.5898e-005	
-0.22081475	1.5072e-005	
-0.22015289	1.1253e-005	
-0.21964197	1.0323e-005	
-0.21919228	1.961e-006	
-0.21913211	1.4453e-005	
-0.21911733	6.813e-006	
-0.21909411	1.5485e-005	
-0.21900122	8.672e-006	
-0.2187922	1.1149e-005	
-0.21834463	2.1163e-005	
-0.21770809	1.755e-005	
-0.21715706	5.781e-006	
-0.21673693	1.3627e-005	
-0.21636747	1.4453e-005	
-0.21606134	1.9821e-005	
-0.21590617	1.5072e-005	
-0.21578372	1.0014e-005	
-0.21565493	1.5795e-005	
-0.21554726	2.3434e-005	
-0.21537625	1.7447e-005	
-0.21502579	1.2078e-005	
-0.21468377	1.8376e-005	
-0.21423408	2.1473e-005	
-0.21367777	1.5588e-005	
-0.21325342	1.4556e-005	
-0.21307924	1.5176e-005	
-0.21302541	1.7034e-005	
-0.21291985	2.2505e-005	
-0.21256727	2.2712e-005	
-0.2125356	1.2491e-005	
-0.21239732	1.9098e-005	
-0.21206586	1.5795e-005	
-0.21160139	1.5485e-005	
-0.21128682	3.304e-006	
-0.21086457	1.724e-005	
-0.21032832	1.2801e-005	
-0.20992402	7.02e-006	
-0.20941311	8.465e-006	
-0.20899932	1.7963e-005	
-0.20863725	2.3434e-005	
-0.20824561	1.5279e-005	
-0.20778431	1.4866e-005	
-0.20732829	8.156e-006	
-0.20707178	1.4143e-005	
-0.20691766	1.7653e-005	
-0.20684376	1.5692e-005	
-0.2066812	1.5692e-005	
-0.20642574	1.9924e-005	
-0.20613862	1.8685e-005	
-0.20604572	8.362e-006	
-0.20597183	2.7357e-005	
-0.2056657	1.9511e-005	
-0.20524979	2.1473e-005	
-0.20467448	1.1459e-005	
-0.20389756	3.2519e-005	
-0.20296756	1.724e-005	
-0.2022603	8.775e-006	
-0.20172194	2.8596e-005	
-0.20148443	2.7254e-005	
-0.20115297	1.2904e-005	
-0.20085845	2.3021e-005	
-0.2003581	9.498e-006	
-0.19992318	2.4776e-005	
-0.19938377	8.878e-006	
-0.19899425	1.5795e-005	
-0.1987979	1.9511e-005	
-0.19859734	1.8582e-005	
-0.19834714	7.536e-006	
-0.19810646	1.4969e-005	
-0.19757865	8.568e-006	
-0.19693684	8.878e-006	
-0.19665288	1.1872e-005	
-0.19660538	-2.374e-006	
-0.19649665	2.426e-005	
-0.19636576	5.471e-006	
-0.19626231	1.6105e-005	
-0.19615358	1.1253e-005	
-0.19607441	2.5086e-005	
-0.19559516	1.7343e-005	
-0.19484885	1.6621e-005	
-0.19381224	2.6118e-005	
-0.19307648	2.3434e-005	
-0.19252334	3.6442e-005	
-0.19198075	2.9319e-005	
-0.19160073	3.2106e-005	
-0.19122177	2.2918e-005	
-0.19088397	2.6428e-005	
-0.19057151	2.3125e-005	
-0.19021366	2.9835e-005	
-0.18995926	3.3964e-005	
-0.18986637	1.9718e-005	
-0.18982625	2.3228e-005	
-0.18977136	2.8699e-005	
-0.18970169	2.5809e-005	
-0.18956129	2.8493e-005	
-0.18949374	3.128e-005	
-0.18931217	2.6944e-005	
-0.18911583	2.0853e-005	
-0.18905671	1.9924e-005	
-0.18892582	2.044e-005	
-0.18867775	2.075e-005	
-0.18816578	2.2402e-005	
-0.18751659	1.9305e-005	
-0.18679033	1.2801e-005	
-0.18622452	1.8066e-005	
-0.18589095	1.8789e-005	
-0.18561121	1.8479e-005	
-0.18527658	3.2519e-005	
-0.18473717	2.7357e-005	
-0.1842727	1.9305e-005	
-0.18393807	2.1576e-005	
-0.1836045	2.137e-005	
-0.18310203	1.8582e-005	
-0.1821467	1.7653e-005	
-0.18124732	1.7034e-005	
-0.18043344	3.159e-005	
-0.17964385	2.395e-005	
-0.17889859	2.3641e-005	
-0.17820716	2.3228e-005	
-0.17768358	1.755e-005	
-0.1770956	1.8582e-005	
-0.17658468	1.9718e-005	
-0.17618988	1.8892e-005	
-0.17570641	2.3744e-005	
-0.17532745	3.0145e-005	
-0.17502343	2.4776e-005	
-0.17469197	1.4453e-005	
-0.17436473	1.9718e-005	
-0.17410083	2.4467e-005	
-0.17388126	2.4363e-005	
-0.17329329	2.7667e-005	
-0.17240869	2.3125e-005	
-0.1715547	2.6118e-005	
-0.17093822	1.8273e-005	
-0.17048009	2.0234e-005	
-0.17038086	2.6841e-005	
-0.1702468	1.0736e-005	
-0.17006734	1.6621e-005	
-0.1696451	2.5293e-005	
-0.16920385	2.2712e-005	
-0.16867183	2.5396e-005	
-0.16808596	1.8685e-005	
-0.1672457	2.6015e-005	
-0.16654478	2.2712e-005	
-0.16619538	2.0647e-005	
-0.16585547	1.6001e-005	
-0.16556412	2.6015e-005	
-0.16488747	2.395e-005	
-0.16410104	2.1266e-005	
-0.16338006	2.6944e-005	
-0.16277731	2.395e-005	
-0.16229384	2.137e-005	
-0.16186315	1.8066e-005	
-0.16138707	2.9009e-005	
-0.16098383	1.9718e-005	
-0.16025335	2.5705e-005	
-0.15930646	1.9615e-005	
-0.15858443	2.5396e-005	
-0.15818541	1.2801e-005	
-0.15792256	2.2608e-005	
-0.15760165	2.1576e-005	
-0.15695351	2.8596e-005	
-0.15622302	1.9821e-005	
-0.15527825	1.8789e-005	
-0.15425325	1.9924e-005	
-0.1533792	1.786e-005	
-0.15263711	2.839e-005	
-0.15205652	1.4659e-005	
-0.15132182	1.8273e-005	
-0.15055439	2.0337e-005	
-0.14996114	1.4453e-005	
-0.149541	2.5809e-005	
-0.14933833	2.9112e-005	
-0.14903114	2.5189e-005	
-0.14863846	1.7963e-005	
-0.1480811	2.0028e-005	
-0.1470751	2.044e-005	
-0.14612505	2.6222e-005	
-0.14541462	2.0028e-005	
-0.14475804	3.4997e-005	
-0.14410989	2.8802e-005	
-0.14351347	2.2402e-005	
-0.14298989	2.6531e-005	
-0.1422953	2.839e-005	
-0.14159859	1.7137e-005	
-0.14094517	2.5705e-005	
-0.14028542	2.4467e-005	
-0.1399434	2.1679e-005	
-0.13961827	2.3744e-005	
-0.13891101	9.601e-006	
-0.13794302	3.6958e-005	
-0.13651478	2.1886e-005	
-0.13491446	1.6414e-005	
-0.13322548	1.1149e-005	
-0.13253934	3.1796e-005	
-0.13236833	1.1459e-005	
-0.13203687	2.6738e-005	
-0.13123566	3.1693e-005	
-0.13009032	2.3641e-005	
-0.12896715	1.2078e-005	
-0.1280815	9.911e-006	
-0.12719478	1.6827e-005	
-0.12618879	1.2904e-005	
-0.12517435	2.0028e-005	
-0.12448291	1.3111e-005	
-0.12397727	1.9098e-005	
-0.12328902	8.465e-006	
-0.12248781	1.4866e-005	
-0.121865	1.8685e-005	
-0.12125063	2.1886e-005	
-0.12046209	1.404e-005	
-0.11973372	1.9615e-005	
-0.11864539	1.3524e-005	
-0.11734171	3.9332e-005	
-0.11609398	2.5912e-005	
-0.11458974	1.6001e-005	
-0.11285749	2.3331e-005	
-0.11166359	1.3421e-005	
-0.11059532	-1.03e-007	
-0.10971388	5.471e-006	
-0.10869205	2.5293e-005	
-0.10716036	2.2712e-005	
-0.10534893	2.3641e-005	
-0.10410963	3.1074e-005	
-0.10315008	3.2622e-005	
-0.10194879	3.0041e-005	
-0.10031154	2.5912e-005	
-0.09829955	1.0736e-005	
-0.09623689	2.2918e-005	
-0.09376043	2.4363e-005	
-0.09150882	2.1989e-005	
-0.08940921	2.0028e-005	
-0.08742466	1.3214e-005	
-0.0855974	1.4453e-005	
-0.08395382	1.3524e-005	
-0.08232288	1.693e-005	
-0.08075847	9.704e-006	
-0.07923944	9.704e-006	
-0.07744385	1.3627e-005	
-0.07644419	8.775e-006	
-0.07551947	1.2595e-005	
-0.0745557	8.775e-006	
-0.07314435	8.156e-006	
-0.07158099	1.0323e-005	
-0.06965661	9.807e-006	
-0.06722766	8.259e-006	
-0.06498026	8.775e-006	
-0.06323323	8.672e-006	
-0.06209421	1.4556e-005	
-0.06123811	1.1769e-005	
-0.06079898	1.373e-005	
-0.06064908	1.6724e-005	
-0.06038518	8.156e-006	
-0.05997349	2.1576e-005	
-0.05933696	1.8066e-005	
-0.05883027	9.704e-006	
-0.05838269	9.291e-006	
-0.05758465	2.787e-006	
-0.05716557	1.8066e-005	
-0.05713812	8.775e-006	
-0.05712123	8.052e-006	
-0.0571149	4.439e-006	
-0.05711279	-1.5898e-005	
-0.05711068	5.678e-006	
-0.05711279	3.613e-006	
-0.05711279	1.8789e-005	
-0.05710857	1.4143e-005	
-0.05711279	1.1149e-005	
-0.05711068	-5.16e-007	
-0.0571149	6.19e-007	
-0.0571149	5.162e-006	
-0.05711279	6.194e-006	
-0.05711596	1.1459e-005	
-0.05711701	9.911e-006	
-0.05711701	1.5898e-005	
-0.05711068	7.02e-006	
-0.05711279	7.639e-006	
-0.0571149	7.743e-006	
-0.05711279	9.704e-006	
-0.05711068	1.3524e-005	
-0.05711068	1.4763e-005	
-0.05711068	9.911e-006	
-0.05711173	1.8479e-005	
-0.05711068	7.949e-006	
-0.05711068	1.3524e-005	
-0.05711279	9.29e-007	
-0.05711068	8.568e-006	
-0.05711279	1.9202e-005	
-0.05711068	8.259e-006	
-0.05710857	1.9615e-005	
-0.05686578	1.1872e-005	
-0.05628097	7.02e-006	
-0.05579644	4.542e-006	
-0.05482106	-5.16e-007	
-0.0533886	6.194e-006	
-0.05222215	3.613e-006	
-0.05121932	8.568e-006	
-0.05056801	1.2801e-005	
-0.05001064	1.2801e-005	
-0.04938572	8.672e-006	
-0.04897615	-5.884e-006	
-0.04889275	1.0323e-005	
-0.0488822	-4.233e-006	
-0.04887481	9.085e-006	
-0.04886742	4.129e-006	
-0.04886108	-6.917e-006	
-0.04886742	-7.23e-007	
-0.04886636	1.0323e-005	
-0.04886531	1.2801e-005	
-0.04886636	1.4143e-005	
-0.04886742	1.2698e-005	
-0.04886742	9.704e-006	
-0.04886742	1.8789e-005	
-0.04886636	5.16e-007	
-0.04886636	2.478e-006	
-0.04887164	2.4054e-005	
-0.04887375	1.9098e-005	
-0.0488727	7.846e-006	
-0.04887164	1.8995e-005	
-0.04887586	1.0323e-005	
-0.04887375	7.33e-006	
-0.04887797	8.775e-006	
-0.04887586	1.8169e-005	
-0.04887903	7.123e-006	
-0.04888325	2.06e-007	
-0.0488917	1.1459e-005	
-0.04889381	1.2491e-005	
-0.04889486	5.265e-006	
-0.04889592	7.02e-006	
-0.04889909	1.1149e-005	
-0.04891703	2.0337e-005	
-0.04892337	1.2285e-005	
-0.04892337	4.852e-006	
-0.04892653	1.0736e-005	
-0.04892759	1.4969e-005	
-0.04892759	1.3111e-005	
-0.0489297	5.265e-006	
-0.04892864	6.401e-006	
-0.0489297	5.368e-006	
-0.04893181	1.3008e-005	
-0.04903104	1.0014e-005	
-0.04927172	4.13e-007	
-0.04953562	5.884e-006	
-0.04975308	2.684e-006	
-0.05049623	1.1253e-005	
-0.0517239	9.29e-007	
-0.05313736	6.813e-006	
-0.05448326	7.639e-006	
-0.05600545	1.755e-005	
-0.05729013	1.435e-005	
-0.05840274	5.575e-006	
-0.05950797	8.156e-006	
-0.06073564	5.678e-006	
-0.06187254	1.4969e-005	
-0.06318678	5.884e-006	
-0.06428673	1.4246e-005	
-0.06546795	1.8582e-005	
-0.06710098	1.7756e-005	
-0.06826954	8.672e-006	
-0.0688723	9.498e-006	
-0.06895147	7.226e-006	
-0.06898102	1.0943e-005	
-0.06922593	1.3524e-005	
-0.06986246	7.846e-006	
-0.07076395	1.6518e-005	
-0.07159999	9.291e-006	
-0.07230725	1.1356e-005	
-0.072853	1.435e-005	
-0.07340086	6.297e-006	
-0.07394872	2.581e-006	
-0.07420946	6.401e-006	
-0.07442269	1.4763e-005	
-0.07457681	5.884e-006	
-0.07493783	1.3421e-005	
-0.07542025	1.0014e-005	
-0.07594594	9.601e-006	
-0.07681787	1.404e-005	
-0.07819756	1.2491e-005	
-0.07961102	7.02e-006	
-0.08058323	7.639e-006	
-0.08135383	1.3008e-005	
-0.08221099	8.259e-006	
-0.08304175	1.2285e-005	
-0.08418711	1.342e-006	
-0.08541373	1.4143e-005	
-0.08686308	1.1046e-005	
-0.0880063	7.743e-006	
-0.08935115	8.775e-006	
-0.09052393	5.678e-006	
-0.09121641	8.26e-007	
-0.09178117	-8.8575e-005	
-0.09234908	-7.639e-006	
-0.09304051	6.669e-005	
-0.09371399	4.2636e-005	
-0.09458275	-3.1e-007	
-0.09535756	2.5499e-005	
-0.09588959	-6.0702e-005	
-0.0960606	-8.156e-006	
-0.09623583	2.1473e-005	
-0.09683647	2.2608e-005	
-0.09762607	1.2285e-005	
-0.0981676	1.2388e-005	
-0.09887063	1.6724e-005	
-0.10007403	-1.4143e-005	
-0.10144104	2.4673e-005	
-0.10284395	-7.639e-006	
-0.10373383	9.601e-006	
-0.10461423	2.168e-006	
-0.10564978	-1.03e-007	
-0.10675395	9.394e-006	
-0.10796473	1.3421e-005	
-0.10878494	1.1459e-005	
-0.10915652	2.1163e-005	
-0.10969277	3.097e-006	
-0.11032719	1.7343e-005	
-0.11107245	5.884e-006	
-0.11174804	2.044e-005	
-0.1126717	3.3345e-005	
-0.11360592	9.291e-006	
-0.1145623	1.3214e-005	
-0.11543422	2.5499e-005	
-0.1163811	2.3331e-005	
-0.11747155	1.8376e-005	
-0.11810914	1.8273e-005	
-0.11857361	2.2092e-005	
-0.11935265	2.2092e-005	
-0.12020241	8.465e-006	
-0.12102051	-2.065e-006	
-0.12182066	-1.0427e-005	
-0.12272215	3.2e-006	
-0.1237556	6.091e-006	
-0.12444069	9.291e-006	
-0.1249136	1.786e-005	
-0.12509728	6.504e-006	
-0.12513106	1.5485e-005	
-0.12520918	1.2491e-005	
-0.12534113	1.5279e-005	
-0.1257011	1.3524e-005	
-0.12611173	1.4659e-005	
-0.12649175	1.8685e-005	
-0.12674509	1.4246e-005	
-0.12699844	1.8995e-005	
-0.12709133	1.8066e-005	
-0.12709345	2.1266e-005	
-0.12709767	2.6635e-005	
-0.12709978	9.601e-006	
-0.12709978	1.6724e-005	
-0.12719901	7.433e-006	
-0.12751569	1.404e-005	
-0.12768248	1.3833e-005	
-0.12778698	1.961e-006	
-0.12798121	1.8995e-005	
-0.1282335	5.781e-006	
-0.12860613	1.3627e-005	
-0.12891648	1.7343e-005	
-0.12901571	2.6944e-005	
-0.12903471	2.5912e-005	
-0.12916561	2.1163e-005	
-0.12923211	1.8479e-005	
-0.12924795	1.4246e-005	
-0.12930495	1.9305e-005	
-0.12939995	1.0943e-005	
-0.12956041	2.3125e-005	
-0.12985598	1.5176e-005	
-0.13006815	8.775e-006	
-0.1301716	4.542e-006	
-0.1302835	1.4866e-005	
-0.13055162	1.7447e-005	
-0.13100976	2.3434e-005	
-0.13158507	8.878e-006	
-0.1319862	1.6414e-005	
-0.13224799	1.7653e-005	
-0.13247178	2.1989e-005	
-0.13274307	2.2299e-005	
-0.13298058	5.265e-006	
-0.1333131	1.4763e-005	
-0.1338768	1.8892e-005	
-0.13438771	1.5279e-005	
-0.13476351	1.5485e-005	
-0.13517836	1.5176e-005	
-0.13541271	1.3524e-005	
-0.13568084	1.0633e-005	
-0.13606086	1.1356e-005	
-0.13649366	1.8892e-005	
-0.13718509	1.2078e-005	
-0.1377699	9.704e-006	
-0.13845499	1.7963e-005	
-0.13915802	2.3744e-005	
-0.13970272	7.949e-006	
-0.14028964	1.5588e-005	
-0.14085017	1.373e-005	
-0.14133152	2.2608e-005	
-0.14191105	9.704e-006	
-0.14263098	2.808e-005	
-0.14349236	6.194e-006	
-0.14433579	1.2698e-005	
-0.14523095	7.02e-006	
-0.14619261	8.259e-006	
-0.14704976	2.065e-006	
-0.14784675	9.394e-006	
-0.14859412	-1.03e-007	
-0.14920954	5.988e-006	
-0.14969723	2.684e-006	
-0.14995058	4.439e-006	
-0.15005298	-3.6442e-005	
-0.15050794	-8.26e-007	
-0.15102625	-2.581e-006	
-0.1513556	6.917e-006	
-0.15171873	3.7164e-005	
-0.15236898	2.3847e-005	
-0.15322719	9.085e-006	
-0.15394712	1.2285e-005	
-0.15446754	2.0131e-005	
-0.15550837	7.33e-006	
-0.15678461	1.1769e-005	
-0.15786872	1.1149e-005	
-0.15861398	1.3421e-005	
-0.15904889	5.265e-006	
-0.1594458	2.4673e-005	
-0.16020162	2.3331e-005	
-0.16116117	2.5499e-005	
-0.16181037	1.3833e-005	
-0.16243529	1.7343e-005	
-0.16284276	2.7151e-005	
-0.1631056	3.3758e-005	
-0.16338006	1.0736e-005	
-0.16381392	5.988e-006	
-0.16417388	8.878e-006	
-0.16466368	6.71e-006	
-0.16585547	9.394e-006	
-0.16729426	1.2801e-005	
-0.1684417	1.053e-005	
-0.16918063	1.6001e-005	
-0.16973588	2.065e-006	
-0.17006945	1.1666e-005	
-0.17054553	1.1253e-005	
-0.17112084	7.743e-006	
-0.17160114	1.0943e-005	
-0.17209623	8.775e-006	
-0.1725058	2.2608e-005	
-0.17283199	1.9305e-005	
-0.17332496	1.7137e-005	
-0.17394882	2.6428e-005	
-0.17437318	1.2904e-005	
-0.17455052	4.852e-006	
-0.17455474	-5.162e-006	
-0.17454207	-2.581e-006	
-0.17453152	7.949e-006	
-0.17452518	4.0881e-005	
-0.17452941	2.9835e-005	
-0.17453574	4.0881e-005	
-0.17453785	3.6235e-005	
-0.17453996	3.4687e-005	
-0.17453996	2.8183e-005	
-0.17454102	2.9938e-005	
-0.17454207	2.3641e-005	
-0.17453785	2.7254e-005	
-0.17453996	1.6001e-005	
-0.17454207	9.498e-006	
-0.17453574	3.0661e-005	
-0.1745463	2.0957e-005	
-0.17463497	2.2299e-005	
-0.17475531	1.9511e-005	
-0.17476586	1.9305e-005	
-0.17523033	1.6518e-005	
-0.17592809	1.5795e-005	
-0.17638411	1.1253e-005	
-0.17665013	1.0014e-005	
-0.17681058	1.5795e-005	
-0.17705548	6.297e-006	
-0.17730777	7.33e-006	
-0.1775284	1.4763e-005	
-0.17782609	1.1253e-005	
-0.17785037	1.693e-005	
-0.17804249	2.0957e-005	
-0.17851118	1.7447e-005	
-0.17894926	1.4556e-005	
-0.17937995	1.8066e-005	
-0.17981275	1.1769e-005	
-0.18017799	5.265e-006	
-0.18030255	9.704e-006	
-0.18040072	5.884e-006	
-0.18060234	8.981e-006	
-0.18120721	8.156e-006	
-0.18225015	1.3937e-005	
-0.18349471	1.1459e-005	
-0.1842157	2.0647e-005	
-0.18477728	9.704e-006	
-0.18534942	1.4143e-005	
-0.18580333	1.9924e-005	
-0.18614641	1.4143e-005	
-0.18653065	2.6428e-005	
-0.18688533	3.8919e-005	
-0.1874068	2.777e-005	
-0.18799056	1.5072e-005	
-0.18865347	1.1253e-005	
-0.18948318	1.8376e-005	
-0.18999304	1.4866e-005	
-0.19036673	8.156e-006	
-0.19050607	-2.271e-006	
-0.19094942	-3.82e-006	
-0.19169363	1.1253e-005	
-0.19234811	8.052e-006	
-0.19317043	-1.858e-006	
-0.19405397	3.82e-006	
-0.19522148	1.239e-006	
-0.19611241	-1.0323e-005	
-0.19672994	-2.8493e-005	
-0.1974182	-2.6531e-005	
-0.19842103	-9.0227e-005	
-0.19972473	-3.0041e-005	
-0.20054072	-6.5451e-005	
-0.20122686	-3.4584e-005	
-0.20169133	-1.1149e-005	
-0.20197529	1.1872e-005	
-0.20229197	9.394e-006	
-0.20262766	1.2078e-005	
-0.20291478	1.7343e-005	
-0.20331803	2.457e-005	
-0.20376455	9.0434e-005	
-0.20403479	0.000328906	
-0.20419946	5.0688e-005	
-0.20454148	1.4969e-005	
-0.20502072	2.6118e-005	
-0.20614495	2.3847e-005	
-0.20708444	2.3434e-005	
-0.20783709	2.5705e-005	
-0.20866047	2.6222e-005	
-0.209411	1.373e-005	
-0.20988813	1.8892e-005	
-0.21027449	1.053e-005	
-0.21057322	2.137e-005	
-0.21096169	2.168e-006	
-0.21132271	4.233e-006	
-0.21143038	7.846e-006	
-0.21144727	-4.026e-006	
-0.21144832	-9.188e-006	
-0.2114536	-7.433e-006	
-0.2114916	1.1253e-005	
-0.21149583	2.746e-005	
-0.21148949	1.2904e-005	
-0.21148738	1.4866e-005	
-0.21147049	6.607e-006	
-0.21141982	5.575e-006	
-0.21140399	2.2402e-005	
-0.21139027	2.6944e-005	
-0.21138604	2.1266e-005	
-0.21137971	3.2519e-005	
-0.21137338	2.9525e-005	
-0.21136704	3.6752e-005	
-0.21135965	2.9009e-005	
-0.21135226	2.7357e-005	
-0.21134804	2.5086e-005	
-0.21133326	1.9924e-005	
-0.21121503	2.0647e-005	
-0.21107147	1.5279e-005	
-0.21099969	8.259e-006	
-0.21044127	6.091e-006	
-0.20848524	1.0117e-005	
-0.20707494	8.878e-006	
-0.20574804	1.5692e-005	
-0.20469982	1.8273e-005	
-0.20408545	1.8376e-005	
-0.20364949	2.5189e-005	
-0.20334547	1.7653e-005	
-0.20311535	2.9835e-005	
-0.20306468	2.5086e-005	
-0.20302457	1.8995e-005	
-0.20298445	1.5588e-005	
-0.20285356	2.0957e-005	
-0.20265721	9.394e-006	
-0.20245454	1.9098e-005	
-0.20217163	7.433e-006	
-0.20187817	2.1989e-005	
-0.20149288	1.6001e-005	
-0.20102841	1.9202e-005	
-0.20028526	1.5279e-005	
-0.19942282	1.8479e-005	
-0.19865012	2.1266e-005	
-0.19803468	2.044e-005	
-0.19752165	1.7034e-005	
-0.19696218	1.022e-005	
-0.19660538	2.075e-005	
-0.19639743	8.878e-006	
-0.19582529	2.1679e-005	
-0.19518136	2.1163e-005	
-0.1943126	2.7977e-005	
-0.19367712	1.4246e-005	
-0.19300786	2.3744e-005	
-0.19225099	1.2801e-005	
-0.19156062	1.5898e-005	
-0.19097159	6.504e-006	
-0.19039417	7.846e-006	
-0.1898537	1.2078e-005	
-0.18932484	1.5176e-005	
-0.18917494	8.775e-006	
-0.18894693	1.3833e-005	
-0.18881815	1.6208e-005	
-0.18877381	1.6518e-005	
-0.18875903	1.5485e-005	
-0.18874425	2.2402e-005	
-0.18874214	2.2195e-005	
-0.18873792	2.1576e-005	
-0.18873792	9.085e-006	
-0.18873581	1.0014e-005	
-0.18873159	1.1253e-005	
-0.18872947	2.3331e-005	
-0.18874214	2.7873e-005	
-0.1887717	1.1253e-005	
-0.1887907	8.156e-006	
-0.1888002	1.1253e-005	
-0.18881076	2.994e-006	
-0.18883715	7.536e-006	
-0.18885404	5.16e-007	
-0.18885826	2.3434e-005	
-0.18886459	2.8802e-005	
-0.1888667	3.3758e-005	
-0.18887093	2.0234e-005	
-0.18887093	1.9718e-005	
-0.18886987	1.2595e-005	
-0.18887198	2.4157e-005	
-0.18887304	1.2388e-005	
-0.18887515	1.022e-005	
-0.18887409	1.4866e-005	
-0.18887304	1.2595e-005	
-0.18887726	1.8892e-005	
-0.18887937	1.4246e-005	
-0.18888782	1.3214e-005	
-0.18891737	2.6118e-005	
-0.18898071	2.3331e-005	
-0.18907255	1.724e-005	
-0.18914855	-5.575e-006	
-0.18920661	-1.5795e-005	
-0.18920661	2.075e-005	
-0.18939662	-1.961e-006	
-0.18961196	1.239e-006	
-0.18961935	3.0867e-005	
-0.18962674	3.0661e-005	
-0.1896278	-1.1356e-005	
-0.18962041	2.2608e-005	
-0.18961619	1.342e-006	
-0.18967847	2.8906e-005	
-0.18981992	-1.549e-006	
-0.18993604	2.1989e-005	
-0.18992865	-7.123e-006	
-0.18995715	7.226e-006	
-0.18993287	9.911e-006	
-0.18992126	3.097e-006	
-0.18992126	1.549e-006	
-0.19010282	5.162e-006	
-0.19011971	6.194e-006	
-0.1900606	1.8376e-005	
-0.19005004	2.4363e-005	
-0.19003526	1.0633e-005	
-0.19002787	3.3138e-005	
-0.19007327	1.0943e-005	
-0.19010071	2.2402e-005	
-0.19015138	2.7873e-005	
-0.19012816	2.3744e-005	
-0.19019994	2.8286e-005	
-0.19035406	3.1796e-005	
-0.19060107	2.4054e-005	
-0.19089664	1.8273e-005	
-0.19114154	1.9098e-005	
-0.19123233	1.1562e-005	
-0.19149306	2.0853e-005	
-0.19204409	2.1473e-005	
-0.19278724	1.8582e-005	
-0.19339844	1.7343e-005	
-0.19400014	1.6518e-005	
-0.19496602	9.085e-006	
-0.19563316	1.7653e-005	
-0.19605541	1.3937e-005	
-0.19630875	2.2712e-005	
-0.19653888	1.3627e-005	
-0.19654416	1.1666e-005	
-0.19654943	1.0323e-005	
-0.1966286	5.265e-006	
-0.19682706	2.478e-006	
-0.19710152	2.684e-006	
-0.19740553	1.0014e-005	
-0.19763566	8.465e-006	
-0.19765255	1.0427e-005	
-0.19764199	1.0014e-005	
-0.19764832	1.6208e-005	
-0.19777605	7.226e-006	
-0.19810435	8.775e-006	
-0.19860367	1.0633e-005	
-0.19916314	1.2285e-005	
-0.19978807	8.981e-006	
-0.20033276	6.71e-006	
-0.20060616	1.3214e-005	
-0.20079406	2.2505e-005	
-0.2010453	1.5072e-005	
-0.20147599	6.194e-006	
-0.20159844	-1.9202e-005	
-0.20162588	1.6208e-005	
-0.20162377	1.786e-005	
-0.20180323	-2.684e-006	
-0.2022413	1.2801e-005	
-0.20249254	7.846e-006	
-0.20256854	1.3421e-005	
-0.20266355	-3.716e-006	
-0.2032378	9.498e-006	
-0.20393556	-2.581e-006	
-0.2043198	-7.639e-006	
-0.20487927	9.911e-006	
-0.20591483	-3.0557e-005	
-0.20644685	-1.4143e-005	
-0.20667064	-1.7343e-005	
-0.20695144	-2.106e-005	
-0.20769247	-5.2443e-005	
-0.20836068	3.8713e-005	
-0.20874386	-4.8314e-005	
-0.20873647	2.2092e-005	
-0.20894232	-3.1177e-005	
-0.20928327	-4.7281e-005	
-0.20934133	-3.2003e-005	
-0.20968334	3.51e-006	
-0.21060911	-5.162e-006	
-0.21189063	-2.7151e-005	
-0.21280901	-6.401e-006	
-0.2134561	3.2209e-005	
-0.21375589	2.2815e-005	
-0.21420875	2.3331e-005	
-0.21469221	-4.181e-005	
-0.2151968	1.3937e-005	
-0.21625346	-6.091e-006	
-0.21712117	-4.852e-006	
-0.21758986	-8.362e-006	
-0.21762364	2.9525e-005	
-0.21802583	5.7089e-005	
-0.21861697	1.032e-006	
-0.21901599	5.0275e-005	
-0.21909939	6.0186e-005	
-0.21913211	0.000145974	
-0.21938757	5.8224e-005	
-0.21944774	4.2533e-005	
-0.21980242	5.0069e-005	
-0.22016978	3.9952e-005	
-0.22084114	2.4157e-005	
-0.22205615	2.5293e-005	
-0.22309593	2.137e-005	
-0.2239193	1.8376e-005	
-0.22454211	1.053e-005	
-0.22505831	2.9009e-005	
-0.2258099	2.891e-006	
-0.2264591	-8.465e-006	
-0.22697002	-5.781e-006	
-0.22756432	-1.4143e-005	
-0.22808263	1.652e-006	
-0.2287825	3.407e-006	
-0.22941798	1.1356e-005	
-0.22999012	3.7681e-005	
-0.23045985	-5.781e-006	
-0.23102355	-2.3331e-005	
-0.23158091	1.4763e-005	
-0.23196515	1.3008e-005	
-0.23215833	3.6855e-005	
-0.23233567	1.4453e-005	
-0.23278958	4.15e-005	
-0.23319072	9.394e-006	
-0.23359501	5.16e-007	
-0.23389692	1.7343e-005	
-0.23435294	2.808e-005	
-0.23510243	-2.4054e-005	
-0.23600708	-1.1149e-005	
-0.2367059	7.846e-006	
-0.23746277	-1.2698e-005	
-0.2384276	-4.439e-006	
-0.23931959	-1.961e-006	
-0.24000785	-3.407e-006	
-0.24060426	-2.3331e-005	
-0.2409505	-1.8066e-005	
-0.24116373	-4.13e-007	
-0.24129462	1.1046e-005	
-0.24134318	6.607e-006	
-0.24132629	1.0633e-005	
-0.24143397	2.7357e-005	
-0.24142552	4.4597e-005	
-0.24139807	5.6779e-005	
-0.24140019	4.9346e-005	
-0.24139807	6.0908e-005	
-0.24141074	5.6056e-005	
-0.24152475	3.6029e-005	
-0.24153319	2.6428e-005	
-0.24169998	2.6531e-005	
-0.24187732	3.6339e-005	
-0.24193432	2.839e-005	
-0.24194383	1.084e-005	
-0.24195121	2.5912e-005	
-0.24195544	1.3627e-005	
-0.24198499	7.743e-006	
-0.24199766	1.1459e-005	
-0.24199661	1.1769e-005	
-0.24201666	1.858e-006	
-0.24210217	-8.9195e-005	
-0.24222462	-2.8906e-005	
-0.24224467	3.9952e-005	
-0.24224151	4.3462e-005	
-0.24223834	1.4659e-005	
-0.24223623	3.7784e-005	
-0.24223412	8.052e-006	
-0.24223517	3.716e-006	
-0.24223623	1.1872e-005	
-0.24223834	6.1528e-005	
-0.24223728	3.0145e-005	
-0.24223623	3.4171e-005	
-0.24223201	2.0544e-005	
-0.24223834	3.6958e-005	
-0.24228584	3.2622e-005	
-0.24231329	3.0867e-005	
-0.24234918	2.9009e-005	
-0.24234496	2.3228e-005	
-0.24233968	1.4453e-005	
-0.24235129	2.9319e-005	
-0.24236185	1.4969e-005	
-0.24235551	2.106e-005	
-0.24234812	1.3421e-005	
-0.24234285	1.6001e-005	
-0.24234707	2.1886e-005	
-0.24234285	1.8169e-005	
-0.24233968	4.955e-006	
-0.24233968	6.19e-007	
-0.24234073	-1.6827e-005	
-0.24233651	-1.5588e-005	
-0.24233546	2.6015e-005	
-0.24233546	4.5217e-005	
-0.24233651	3.0248e-005	
-0.24233862	3.0351e-005	
-0.24233546	1.022e-005	
-0.2423344	1.6001e-005	
-0.24232807	3.407e-006	
-0.24231857	1.4969e-005	
-0.24231646	1.8273e-005	
-0.24231329	2.2299e-005	
-0.24231434	1.6827e-005	
-0.24232596	2.3228e-005	
-0.24249485	2.5602e-005	
-0.24260886	1.5176e-005	
-0.24274187	3.6339e-005	
-0.24291288	2.3228e-005	
-0.24308283	2.1163e-005	
-0.24317256	2.9009e-005	
-0.24326334	3.5203e-005	
-0.24360113	1.5382e-005	
-0.24423555	2.3021e-005	
-0.24498504	1.3937e-005	
-0.24603115	1.7343e-005	
-0.24694953	2.9215e-005	
-0.24762723	1.786e-005	
-0.24818143	1.3833e-005	
-0.24889291	1.5382e-005	
-0.24952733	8.156e-006	
-0.25023036	4.646e-006	
-0.25132925	1.084e-005	
-0.25247776	5.368e-006	
-0.2537181	8.775e-006	
-0.25490777	1.3627e-005	
-0.25683426	3.51e-006	
-0.25837651	1.1975e-005	
-0.26057323	1.0633e-005	
-0.26164256	1.1562e-005	
-0.26268022	1.0427e-005	
-0.26365772	5.265e-006	
-0.26429425	4.542e-006	
-0.26511235	1.2182e-005	
-0.26613734	2.3847e-005	
-0.26721301	2.1783e-005	
-0.26748325	2.2815e-005	
-0.26747163	2.8699e-005	
-0.26746213	2.9835e-005	
-0.26746425	3.448e-005	
-0.26746636	3.3964e-005	
-0.26746425	2.0544e-005	
-0.26746002	2.3434e-005	
-0.26746002	1.724e-005	
-0.2674558	1.6001e-005	
-0.26746636	8.26e-007	
-0.26749169	3.304e-006	
-0.26749169	6.607e-006	
-0.26750014	2.426e-005	
-0.26749802	1.7034e-005	
-0.26750436	2.0647e-005	
-0.26750647	2.5602e-005	
-0.26752969	1.4969e-005	
-0.26755503	1.5382e-005	
-0.26756981	1.4556e-005	
-0.26757403	1.4763e-005	
-0.26758458	1.6001e-005	
-0.26761625	5.988e-006	
-0.26760992	1.693e-005	
-0.2675318	2.106e-005	
-0.26750858	2.6222e-005	
-0.26749169	1.6311e-005	
-0.26748536	1.6001e-005	
-0.26748113	1.0014e-005	
-0.26747691	1.084e-005	
-0.26746636	1.8376e-005	
-0.26746213	2.457e-005	
-0.26745791	3.448e-005	
-0.26745369	3.0661e-005	
-0.26744102	2.426e-005	
-0.26742624	2.7977e-005	
-0.26740724	3.0248e-005	
-0.26714967	2.3434e-005	
-0.26665248	2.6325e-005	
-0.26637802	3.0764e-005	
-0.26538997	2.777e-005	
-0.26409685	2.2299e-005	
-0.26338115	2.6325e-005	
-0.26267494	1.5898e-005	
-0.26200674	2.6738e-005	
-0.26138816	1.7343e-005	
-0.26050145	1.2801e-005	
-0.25929278	1.5588e-005	
-0.25858763	1.9615e-005	
-0.25778431	1.9202e-005	
-0.25721006	-3.82e-006	
-0.25622095	5.162e-006	
-0.25508723	1.3524e-005	
-0.25447392	1.5382e-005	
-0.25391128	1.8892e-005	
-0.25316707	1.9098e-005	
-0.25204179	1.7137e-005	
-0.25013958	2.8802e-005	
-0.24855828	3.2932e-005	
-0.24737388	2.426e-005	
-0.2455804	3.51e-006	
-0.24395265	-9.29e-007	
-0.2426912	4.439e-006	
-0.24158386	2.1989e-005	
-0.24064015	1.4763e-005	
-0.23925414	2.9525e-005	
-0.23759261	-6.297e-006	
-0.23601342	6.091e-006	
-0.2344775	3.1e-007	
-0.23252568	1.4969e-005	
-0.23066253	8.775e-006	
-0.22859671	2.271e-006	
-0.22654672	1.755e-006	
-0.22456745	7.743e-006	
-0.22269163	7.743e-006	
-0.22066802	1.1149e-005	
-0.21816517	6.607e-006	
-0.21610462	1.6621e-005	
-0.21430058	8.052e-006	
-0.21278895	6.917e-006	
-0.21178718	1.2801e-005	
-0.21045288	2.581e-006	
-0.20899299	-2.4363e-005	
-0.20723539	-3.9539e-005	
-0.20582193	-8.775e-006	
-0.20436202	8.981e-006	
-0.20270999	4.4391e-005	
-0.20120786	6.7206e-005	
-0.1993806	4.7798e-005	
-0.19768844	2.1886e-005	
-0.19570495	3.6442e-005	
-0.19369612	2.0647e-005	
-0.19171685	3.2725e-005	
-0.19040473	2.5602e-005	
-0.1887337	3.407e-006	
-0.18725269	3.716e-006	
-0.18633219	5.265e-006	
-0.18572205	1.7137e-005	
-0.18521641	1.9305e-005	
-0.18477306	2.5086e-005	
-0.18454927	2.9835e-005	
-0.18451127	3.2622e-005	
-0.18449438	3.5719e-005	
-0.18449649	3.0041e-005	
-0.18449227	2.5499e-005	
-0.18448171	1.6208e-005	
-0.18445215	1.4866e-005	
-0.18442471	2.3021e-005	
-0.18441837	1.0427e-005	
-0.18441204	1.373e-005	
-0.18440782	1.4969e-005	
-0.18439937	2.2402e-005	
-0.18441204	1.7963e-005	
-0.18445849	2.0544e-005	
-0.18448171	2.1679e-005	
-0.18449227	1.8479e-005	
-0.18449438	-8.878e-006	
-0.18449543	2.168e-006	
-0.1844986	3.3242e-005	
-0.18450071	1.6827e-005	
-0.18450071	8.362e-006	
-0.18450071	1.7756e-005	
-0.18450282	8.052e-006	
-0.18463794	1.7963e-005	
-0.18513619	9.807e-006	
-0.18551621	1.5072e-005	
-0.18569249	1.7137e-005	
-0.18604612	1.4659e-005	
-0.18690433	1.032e-006	
-0.18797789	-2.478e-006	
-0.1891116	-1.1253e-005	
-0.19029283	-4.542e-006	
-0.19118799	-5.781e-006	
-0.19208631	-1.239e-006	
-0.19303531	1.4556e-005	
-0.1940128	1.0427e-005	
-0.19577039	6.71e-006	
-0.19651143	1.2078e-005	
-0.19698223	8.465e-006	
-0.1975491	1.693e-005	
-0.19839147	8.981e-006	
-0.19939327	-5.936e-005	
-0.19972367	2.075e-005	
-0.20013008	7.9078e-005	
-0.20035493	5.678e-006	
-0.20051749	1.9098e-005	
-0.20061461	-2.457e-005	
-0.20061672	3.2519e-005	
-0.200622	-4.0365e-005	
-0.20083734	2.6325e-005	
-0.20156888	-5.4921e-005	
-0.20232364	4.4907e-005	
-0.20345737	-3.6545e-005	
-0.20390811	-5.471e-006	
-0.20414246	1.2078e-005	
-0.20432402	0.000141535	
-0.20464071	3.19e-005	
-0.20534374	6.5864e-005	
-0.20638985	-3.82e-006	
-0.20699999	3.82e-006	
-0.2075943	5.059e-006	
-0.20804399	1.9305e-005	
-0.20863936	2.9422e-005	
-0.20934977	1.3937e-005	
-0.2099008	3.613e-006	
-0.21031777	6.504e-006	
-0.21055845	-8.156e-006	
-0.21066084	-1.755e-006	
-0.21067245	1.4763e-005	
-0.21091735	3.0041e-005	
-0.21142827	3.4584e-005	
-0.21195396	8.156e-006	
-0.21239415	1.724e-005	
-0.21298107	1.8273e-005	
-0.21401135	8.362e-006	
-0.21555043	2.4673e-005	
-0.21676015	1.6208e-005	
-0.21782315	-4.4184e-005	
-0.21824329	8.775e-006	
-0.21823062	-2.5602e-005	
-0.21824751	-0.000117791	
-0.21811873	-3.9849e-005	
-0.21808283	3.2932e-005	
-0.21805961	0.000127392	
-0.21802794	6.1425e-005	
-0.21796461	3.0764e-005	
-0.21747691	2.478e-006	
-0.21464577	-8.775e-006	
-0.21197296	-2.5499e-005	
-0.20970868	-1.8273e-005	
-0.20795954	8.981e-006	
-0.20689232	9.601e-006	
-0.20621462	1.7137e-005	
-0.20492994	-2.6222e-005	
-0.2029739	-7.722e-005	
-0.2007645	-0.000111081	
-0.19866701	-0.000165795	
-0.19756388	2.9835e-005	
-0.19734853	0.000338713	
-0.19730947	8.4652e-005	
-0.19731686	3.861e-005	
-0.19740764	5.265e-006	
-0.19742559	-1.652e-006	
-0.19743298	-8.052e-006	
-0.1974372	-9.704e-006	
-0.1974372	-1.435e-005	
-0.19743509	-1.4246e-005	
-0.19743509	5.265e-006	
-0.19743509	1.0117e-005	
-0.19744354	5.3372e-005	
-0.19744354	6.1115e-005	
-0.19744142	3.5719e-005	
-0.1974372	2.7047e-005	
-0.19742453	2.8906e-005	
-0.1973802	1.5279e-005	
-0.19736542	-0.000100138	
-0.1973612	-0.000302065	
-0.19735275	-0.000298039	
-0.19734642	-0.000104474	
-0.19734853	0.000117378	
-0.19734642	0.000153097	
-0.19734431	0.000156194	
-0.1973422	-0.00010788	
-0.1973422	-0.00013658	
-0.19734431	-3.7784e-005	
-0.19734009	-3.5616e-005	
-0.19734009	-0.00019501	
-0.19733797	-0.000206779	
-0.19733797	-0.0001819	
-0.19734009	-0.000101686	
-0.19733692	-4.8314e-005	
-0.19733375	0.000294322	
-0.19733797	0.000304026	
-0.19733164	-2.6325e-005	
-0.19733375	9.5905e-005	
-0.19734642	9.7041e-005	
-0.19736542	7.1232e-005	
-0.19737598	7.7839e-005	
-0.19738653	3.9229e-005	
-0.19739287	5.3785e-005	
-0.19739287	5.0791e-005	
-0.19767999	4.3359e-005	
-0.19854876	6.5657e-005	
-0.19913781	3.7784e-005	
-0.20197846	2.9215e-005	
-0.20407279	-1.5176e-005	
-0.20629696	-0.000147729	
-0.2084789	-0.000188094	
-0.21025971	6.4522e-005	
-0.21159083	0.00042574	
-0.21306552	0.00025788	
-0.21429953	3.479e-005	
-0.21552404	-8.672e-006	
-0.21703039	-1.0943e-005	
-0.21837629	-0.000145148	
-0.22008955	-0.000188919	
-0.22135628	-0.00026521	
-0.22275496	-0.000224226	
-0.22463184	-0.000289677	
-0.22774272	-0.000618789	
-0.23165903	-0.000637165	
-0.2359353	-0.000412836	
-0.24117006	-0.000368341	
-0.24516027	1.2388e-005	
-0.24849916	5.0998e-005	
-0.24999813	3.4171e-005	
-0.2503222	4.3978e-005	
-0.25031376	-8.8369e-005	
-0.25030637	-5.6366e-005	
-0.25029898	0.000149897	
-0.25074972	-0.000141225	
-0.25078139	-1.1356e-005	
-0.25079406	0.000301239	
-0.25115719	3.9539e-005	
-0.25293062	-1.7343e-005	
-0.25659147	-2.8699e-005	
-0.26059012	9.911e-006	
-0.26300851	-1.0117e-005	
-0.26522846	-1.7447e-005	
-0.26708211	-4.8417e-005	
-0.26864231	-1.7343e-005	
-0.26934851	0.000126256	
-0.26932529	-5.905e-005	
-0.26955119	-8.8782e-005	
-0.2697602	0.000100241	
-0.27007899	6.7515e-005	
-0.27055718	3.8507e-005	
-0.27106176	3.8919e-005	
-0.27117577	1.9615e-005	
-0.27117999	-1.3421e-005	
-0.27119055	4.563e-005	
-0.27118844	1.3421e-005	
-0.27117999	-4.4701e-005	
-0.27117788	-1.8892e-005	
-0.27117366	-5.4714e-005	
-0.27117577	-3.7474e-005	
-0.27117788	-1.3111e-005	
-0.27117683	-1.4246e-005	
-0.27117577	0.000134308	
-0.27117366	5.7398e-005	
-0.27117366	-7.4639e-005	
-0.27117366	-0.000124811	
-0.27117155	2.7151e-005	
-0.27116944	5.1411e-005	
-0.27116944	-1.0943e-005	
-0.27117155	-4.15e-005	
-0.27116733	1.7653e-005	
-0.27117155	-5.059e-006	
-0.27116733	-0.0001181	
-0.2711631	-5.8534e-005	
-0.27116733	-5.0069e-005	
-0.27116521	6.19e-007	
-0.27116099	6.504e-006	
-0.2711631	2.9112e-005	
-0.2711631	7.0922e-005	
-0.27116099	2.5396e-005	
-0.2711631	1.239e-006	
-0.27116521	-9.601e-006	
-0.2711631	-1.1666e-005	
-0.27116099	-7.846e-006	
-0.2711631	-2.6944e-005	
-0.27115677	-1.0633e-005	
-0.27115677	-4.7901e-005	
-0.27115888	-3.8713e-005	
-0.27115677	-3.6235e-005	
-0.27116521	-8.672e-006	
-0.2711631	3.1693e-005	
-0.27116521	-7.433e-006	
-0.27116521	-5.3476e-005	
-0.27116521	-1.7756e-005	
-0.2711631	7.3916e-005	
-0.27116521	6.6173e-005	
-0.27116521	4.7798e-005	
-0.27116416	9.911e-006	
-0.2711631	9.498e-006	
-0.27116099	-0.000147729	
-0.2711631	-5.234e-005	
-0.27116099	1.0427e-005	
-0.27116521	4.6765e-005	
-0.2711631	-1.2698e-005	
-0.27116099	-1.724e-005	
-0.2711631	-2.3847e-005	
-0.2711631	-1.8789e-005	
-0.2711631	-2.065e-006	
-0.2711631	-8.465e-006	
-0.27116099	1.1046e-005	
-0.27116205	4.129e-006	
-0.2711631	1.1356e-005	
-0.2711631	-6.71e-006	
-0.27116099	2.6325e-005	
-0.27116099	5.9153e-005	
-0.27115994	8.775e-006	
-0.27116099	-5.988e-006	
-0.27116416	-1.7653e-005	
-0.27115888	-3.9849e-005	
-0.27116099	4.9759e-005	
-0.27115888	-3.097e-005	
-0.27115782	-3.3758e-005	
-0.27115888	1.373e-005	
-0.27115677	4.0571e-005	
-0.27115677	1.4763e-005	
-0.27115677	-2.8596e-005	
-0.27115677	-1.6518e-005	
-0.27115888	-2.0028e-005	
-0.27115888	8.26e-007	
-0.27115888	2.3021e-005	
-0.27115888	4.955e-006	
-0.27115677	1.3524e-005	
-0.27115677	6.1528e-005	
-0.27115677	3.1177e-005	
-0.27115888	6.607e-006	
-0.27115677	-3.4997e-005	
-0.27115466	-3.8507e-005	
-0.27115677	-1.9202e-005	
-0.27115466	-6.917e-006	
-0.27115466	-8.156e-006	
-0.27115888	2.3228e-005	
-0.27115677	-1.7963e-005	
-0.27115466	-1.5072e-005	
-0.27115466	-1.652e-006	
-0.27115466	3.82e-006	
-0.27115677	3.2003e-005	
-0.27115466	-3.7268e-005	
-0.27115255	-1.5072e-005	
-0.27115466	-7.0406e-005	
-0.2711536	-0.000183758	
-0.27115466	-2.106e-005	
-0.27115255	8.878e-006	
-0.27115255	2.2505e-005	
-0.27115466	1.9305e-005	
-0.27115466	8.465e-006	
-0.27114832	1.1149e-005	
-0.27115044	-0.000305575	
-0.27115255	-0.0001181	
-0.2711346	-0.000102615	
-0.27113566	-6.1734e-005	
-0.27113143	-3.2e-006	
-0.27178802	4.8727e-005	
-0.27397525	0.000134928	
-0.27664911	6.2663e-005	
-0.27967238	2.9835e-005	
-0.2825299	-4.336e-006	
-0.2866415	-7.1955e-005	
-0.29251597	-5.8844e-005	
-0.2977233	-4.4494e-005	
-0.30206291	-1.2078e-005	
-0.30707282	3.4584e-005	
-0.31206691	4.852e-005	
-0.3164614	6.5967e-005	
-0.31954062	2.0853e-005	
-0.32263883	-1.755e-005	
-0.32454949	1.7343e-005	
-0.32488412	1.9821e-005	
-0.32493056	7.33e-006	
-0.32481867	1.6001e-005	
-0.32476694	-1.4763e-005	
-0.32464238	-2.1576e-005	
-0.32110187	-3.0145e-005	
-0.3161215	-1.9408e-005	
-0.30988919	-5.988e-006	
-0.30180851	4.13e-007	
-0.29320634	2.1679e-005	
-0.28303343	1.8066e-005	
-0.27253645	2.746e-005	
-0.26076958	1.8479e-005	
-0.24908714	9.29e-007	
-0.23781746	-1.755e-006	
-0.2261667	2.5396e-005	
-0.21574994	-2.0131e-005	
-0.20550736	-1.8582e-005	
-0.19526581	1.4969e-005	
-0.18593634	-1.2698e-005	
-0.17737428	5.988e-006	
-0.17046531	7.123e-006	
-0.16209539	2.1679e-005	
-0.15422369	-1.1459e-005	
-0.14795231	1.3214e-005	
-0.14293711	1.3111e-005	
-0.14022419	-8.465e-006	
-0.13843915	-2.3538e-005	
-0.137601	-1.5279e-005	
-0.13749333	-2.0853e-005	
-0.13763056	2.6428e-005	
-0.13764322	3.2622e-005	
-0.13791135	2.478e-006	
-0.14177805	-1.8376e-005	
-0.14874613	-3.2106e-005	
-0.15544503	-2.4673e-005	
-0.16357641	-1.5795e-005	
-0.17125174	-6.5864e-005	
-0.17665224	5.884e-006	
-0.18228815	1.239e-006	
-0.18633747	0	
-0.19083331	2.4157e-005	
-0.19653993	1.8892e-005	
-0.20384266	-6.917e-006	
-0.21313308	-1.342e-006	
-0.22283308	2.0647e-005	
-0.23338495	4.4081e-005	
-0.24284637	6.8858e-005	
-0.24987357	0.000127082	
-0.2565598	-7.433e-006	
-0.26329775	-1.3627e-005	
-0.27103854	1.1769e-005	
-0.27751365	-4.0881e-005	
-0.2818216	-6.3283e-005	
-0.28669006	-5.9463e-005	
-0.29245686	-4.563e-005	
-0.29775074	7.123e-006	
-0.30223392	1.7137e-005	
-0.30953028	-0.000192533	
-0.31567286	2.5602e-005	
-0.31996603	3.7887e-005	
-0.32378945	-0.000245699	
-0.32633664	-0.00042863	
-0.32760231	-0.000345733	
-0.32794222	-0.000198624	
-0.32801611	2.5189e-005	
-0.32782927	0.000153304	
-0.32777121	-0.000152684	
-0.32772054	0.000124501	
-0.32766143	0.000134205	
-0.32754214	7.02e-006	
-0.32629652	-7.9181e-005	
-0.32378312	-0.00013658	
-0.32277079	-0.000184274	
-0.32253011	-0.000236201	
-0.32236015	0.000195836	
-0.32164973	2.457e-005	
-0.32080841	2.7667e-005	
-0.31816833	8.8369e-005	
-0.31147999	0.00015031	
-0.30148127	3.1074e-005	
-0.28737199	3.3758e-005	
-0.27210999	9.29e-007	
-0.25472621	2.3744e-005	
-0.23983473	1.9511e-005	
-0.22500975	3.407e-006	
-0.21181884	3.0041e-005	
-0.19922437	9.5389e-005	
-0.18710912	8.4962e-005	
-0.17736689	-7.33e-006	
-0.17161803	-1.4969e-005	
-0.1676785	4.1087e-005	
-0.16581113	2.4054e-005	
-0.1657668	2.4467e-005	
-0.16581747	9.807e-006	
-0.16822953	6.2457e-005	
-0.18126315	7.278e-005	
-0.1979629	5.265e-006	
-0.21598217	2.839e-005	
-0.23598386	9.29e-007	
-0.25489827	1.5485e-005	
-0.27299036	-2.6944e-005	
-0.28634699	1.084e-005	
-0.29976379	2.1163e-005	
-0.30950917	2.075e-005	
-0.31580798	-4.3978e-005	
-0.31912682	-7.639e-006	
-0.32087702	9.704e-006	
-0.32169195	1.693e-005	
-0.32184607	-3.4997e-005	
-0.3219073	-0.000206779	
-0.3219263	-9.6112e-005	
-0.32191574	-5.9153e-005	
-0.3219073	-3.7268e-005	
-0.32190413	-2.6428e-005	
-0.32190096	-5.2856e-005	
-0.32190096	-5.988e-006	
-0.32190096	-2.4983e-005	
-0.32189885	3.9952e-005	
-0.32189674	9.8796e-005	
-0.32189463	0.000145871	
-0.32189252	7.1748e-005	
-0.32189357	7.3606e-005	
-0.32189041	5.0069e-005	
-0.32189041	-6.9787e-005	
-0.32188618	-0.000307123	
-0.32188618	-0.000591019	
-0.3218883	-0.000109532	
-0.3218883	0.000300207	
-0.32188618	-6.7103e-005	
-0.32188618	-4.212e-005	
-0.32188407	9.704e-006	
-0.32188618	5.8018e-005	
-0.32188618	0.000370303	
-0.32188407	-0.000322299	
-0.32188091	-0.000334997	
-0.32188407	0.00017106	
-0.32188618	0.000399209	
-0.32188196	0.000280385	
-0.32188407	0.000231246	
-0.32187774	-0.000139677	
-0.32187985	-4.749e-006	
-0.32187563	-4.2429e-005	
-0.32187563	4.3152e-005	
-0.32188196	0.000571404	
-0.32187985	7.5361e-005	
-0.32187774	-8.6407e-005	
-0.32187774	-0.000137715	
-0.32187563	-2.7254e-005	
-0.32187774	0.000123882	
-0.32187985	0.000224329	
-0.32187668	9.095e-005	
-0.32187879	8.1555e-005	
-0.32187985	0.00021607	
-0.32187563	0.000175293	
-0.32187774	9.4047e-005	
-0.32187563	5.3063e-005	
-0.32187563	-7.4845e-005	
-0.32187352	-0.000232691	
-0.32187035	-3.097e-005	
-0.32187352	1.724e-005	
-0.32187352	0.000128114	
-0.32187246	6.2251e-005	
-0.32187352	-5.7811e-005	
-0.32186929	-9.188e-006	
-0.32187352	0.00014298	
-0.32187352	-5.1204e-005	
-0.32187141	-0.000354714	
-0.32186296	-0.001278977	
-0.32185029	-0.000873159	
-0.32187141	0.000480454	
-0.32186929	0.000754026	
-0.32183551	0.000152271	
-0.32182918	0.000270991	
-0.32184396	9.5492e-005	
-0.32184185	7.4226e-005	
-0.32183024	6.5451e-005	
-0.32182918	-0.000101273	
-0.32177218	-0.000188197	
-0.32174262	-0.000234652	
-0.32175318	1.435e-005	
-0.32175529	0.000232794	
-0.32176584	0.000246318	
-0.32179118	7.6807e-005	
-0.32182496	6.19e-007	
-0.32184185	-3.7371e-005	
-0.32184607	-8.6098e-005	
-0.32184818	-3.3138e-005	
-0.32182285	2.2608e-005	
-0.32180385	2.1473e-005	
-0.3217954	5.5644e-005	
-0.32178801	6.8858e-005	
-0.32178485	5.2546e-005	
-0.32178485	4.5423e-005	
-0.3217764	3.1693e-005	
-0.32176796	2.6944e-005	
-0.32176584	2.395e-005	
-0.32176162	3.2416e-005	
-0.32174051	1.755e-005	
-0.32172995	2.9112e-005	
-0.32170673	3.3035e-005	
-0.32167295	-2.4673e-005	
-0.32166873	-2.0234e-005	
-0.32167084	3.6545e-005	
-0.32166662	4.7488e-005	
-0.32165395	2.4776e-005	
-0.321617	7.33e-006	
-0.32158639	3.613e-006	
-0.32069651	1.5588e-005	
-0.31919438	-3.923e-006	
-0.31790759	2.1266e-005	
-0.31634106	-4.749e-006	
-0.31316791	9.394e-006	
-0.30885891	8.052e-006	
-0.30341409	9.291e-006	
-0.29903331	-5.4714e-005	
-0.29198184	-6.2147e-005	
-0.28420093	5.1514e-005	
-0.27803301	8.4962e-005	
-0.27137	3.4893e-005	
-0.26512185	5.988e-006	
-0.25852218	-1.0736e-005	
-0.24924759	1.6001e-005	
-0.2409505	3.407e-006	
-0.23248768	9.394e-006	
-0.22601469	-3.5306e-005	
-0.221199	-1.4453e-005	
-0.21756453	5.0482e-005	
-0.21572777	5.9257e-005	
-0.21517252	2.839e-005	
-0.21513135	-1.786e-005	
-0.2151229	2.3228e-005	
-0.21511657	-2.581e-006	
-0.21511446	-3.6855e-005	
-0.21511446	-6.6277e-005	
-0.21511235	5.471e-006	
-0.21511235	8.744e-005	
-0.21511235	4.542e-006	
-0.21511024	-4.4288e-005	
-0.21511235	-8.393e-005	
-0.21511024	-0.000302994	
-0.21511235	-1.5176e-005	
-0.21511024	0.000172608	
-0.21511235	3.0661e-005	
-0.21510813	-0.000149071	
-0.21511129	-9.704e-006	
-0.21510601	-5.6263e-005	
-0.21511024	-0.000129456	
-0.2151039	-0.000721404	
-0.2151039	-0.000247763	
-0.21511235	0.000473847	
-0.21510813	0.00038331	
-0.21510601	-4.0984e-005	
-0.21510601	2.777e-005	
-0.21510813	2.478e-006	
-0.21510601	7.5774e-005	
-0.21510813	6.297e-006	
-0.21510601	-8.568e-006	
-0.21510918	0.000138334	
-0.21511024	7.5981e-005	
-0.21510601	-0.000162285	
-0.21510601	-0.000265416	
-0.2151039	-0.000635823	
-0.21510601	-7.0406e-005	
-0.21510813	0.000305059	
-0.21510813	0.000367412	
-0.21510813	7.0509e-005	
-0.21510601	-2.5189e-005	
-0.21511024	-0.000176635	
-0.21510601	-0.000141844	
-0.21510601	-9.9002e-005	
-0.21510813	0.000141328	
-0.21510813	-3.0041e-005	
-0.21517991	9.394e-006	
-0.2151968	-2.8906e-005	
-0.21520419	6.4935e-005	
-0.21520946	1.8582e-005	
-0.21521369	-8.2072e-005	
-0.21521369	-7.629e-005	
-0.21521791	-7.9594e-005	
-0.21522635	1.0323e-005	
-0.21523058	2.2195e-005	
-0.21524958	3.5306e-005	
-0.21528336	3.1074e-005	
-0.21529813	1.9924e-005	
-0.21533508	-1.2904e-005	
-0.21535092	-0.000390847	
-0.21535303	-0.000193875	
-0.21535725	1.022e-005	
-0.21535408	0.000186752	
-0.21536358	0.00018541	
-0.21550081	1.1149e-005	
-0.21566443	-1.9098e-005	
-0.21632947	-1.4246e-005	
-0.21884287	-1.4556e-005	
-0.22151568	1.5176e-005	
-0.22213215	5.781e-006	
-0.2220646	1.5072e-005	
-0.22203926	1.4866e-005	
-0.22204137	2.9112e-005	
-0.22257973	6.504e-006	
-0.22354562	1.2491e-005	
-0.22457378	1.1356e-005	
-0.22666389	8.568e-006	
-0.23006717	8.981e-006	
-0.23193876	-3.716e-006	
-0.23402993	1.0117e-005	
-0.23840437	1.445e-006	
-0.24134952	-6.813e-006	
-0.243086	-5.471e-006	
-0.24482459	1.5176e-005	
-0.24507371	-8.775e-006	
-0.24484992	-1.2904e-005	
-0.24477392	-7.23e-007	
-0.2437637	1.7034e-005	
-0.2395476	-4.026e-006	
-0.23534205	1.032e-006	
-0.23217522	2.457e-005	
-0.22977899	-1.1149e-005	
-0.22730781	-1.5072e-005	
-0.22421487	-2.065e-006	
-0.2219717	6.194e-006	
-0.22032178	1.9924e-005	
-0.21965253	5.781e-006	
-0.21950685	1.4246e-005	
-0.21949419	8.259e-006	
-0.21948468	1.5588e-005	
-0.21960397	1.5485e-005	
-0.2197032	2.065e-006	
-0.21972009	5.162e-006	
-0.21972747	3.82e-006	
-0.21973698	-3.82e-006	
-0.21973909	5.988e-006	
-0.21974753	-1.084e-005	
-0.21974964	-8.259e-006	
-0.21977709	2.684e-006	
-0.21978553	2.4673e-005	
-0.21978764	1.0014e-005	
-0.21979187	7.949e-006	
-0.21979081	3.923e-006	
-0.21979398	2.581e-006	
-0.22003677	9.085e-006	
-0.22078836	2.374e-006	
-0.22077781	-4.439e-006	
-0.22069547	5.988e-006	
-0.22065958	1.7137e-005	
-0.22065113	1.8685e-005	
-0.22064691	1.5692e-005	
-0.22063636	1.03e-007	
-0.22251217	1.1872e-005	
-0.22768783	2.0853e-005	
-0.23253624	5.554e-005	
-0.23609576	2.9215e-005	
-0.23816053	5.678e-006	
-0.23943359	2.9215e-005	
-0.2406032	3.0145e-005	
-0.24148252	3.3758e-005	
-0.24243363	3.82e-006	
-0.2440751	-3.923e-006	
-0.24587597	-2.7357e-005	
-0.24702975	4.2739e-005	
-0.24788691	4.026e-006	
-0.24888657	2.9422e-005	
-0.24907025	2.1576e-005	
-0.24907447	-0.000246215	
-0.24908081	1.5795e-005	
-0.24907236	7.846e-006	
-0.24906814	-9.394e-006	
-0.24906497	1.7137e-005	
-0.2490618	4.646e-006	
-0.24905969	2.1576e-005	
-0.24905969	3.6235e-005	
-0.24905969	8.362e-006	
-0.24905547	-6.504e-006	
-0.24905547	-1.7447e-005	
-0.24905125	-2.6531e-005	
-0.24905336	-3.8919e-005	
-0.2490523	-1.8066e-005	
-0.24905336	-1.9305e-005	
-0.24905125	-2.5086e-005	
-0.24904914	1.1975e-005	
-0.24904914	1.0014e-005	
-0.24904703	1.0427e-005	
-0.24905019	1.9305e-005	
-0.24904703	1.1975e-005	
-0.24904491	1.5176e-005	
-0.24904491	1.5795e-005	
-0.24904175	4.13e-007	
-0.24904491	-1.9305e-005	
-0.2490428	-2.3434e-005	
-0.24904069	-7.433e-006	
-0.24904069	1.7447e-005	
-0.24904491	4.2017e-005	
-0.2490428	4.5217e-005	
-0.24904069	4.4184e-005	
-0.24903858	1.4866e-005	
-0.24903647	-6.194e-006	
-0.24903647	-6.6173e-005	
-0.24903647	-0.000132657	
-0.24903647	-0.000167034	
-0.24903858	-0.000162698	
-0.24903647	5.0895e-005	
-0.24903647	0.000180454	
-0.24903858	0.000180041	
-0.24903753	0.000162801	
-0.24903647	0.000147832	
-0.24903647	7.3503e-005	
-0.24903647	5.5747e-005	
-0.24903436	-5.1617e-005	
-0.24903225	-0.000482519	
-0.24903436	-0.000287199	
-0.24903119	0.000437199	
-0.24903225	-0.000577082	
-0.24903225	0.00033541	
-0.24903225	4.3049e-005	
-0.24902908	2.1886e-005	
-0.24903225	-7.2884e-005	
-0.24902802	-0.000144632	
-0.24903014	-3.5926e-005	
-0.24902802	2.4776e-005	
-0.24903014	6.1425e-005	
-0.24903014	0.000117378	
-0.24902802	3.6855e-005	
-0.24903014	8.8782e-005	
-0.24902802	0.000121404	
-0.24903014	2.2815e-005	
-0.24903225	8.5169e-005	
-0.24903014	0.000164969	
-0.24903014	0.000158878	
-0.24902802	-9.8176e-005	
-0.24902908	0.000123778	
-0.24903014	0.000243944	
-0.24902591	0.000154955	
-0.24902802	-2.9112e-005	
-0.24902591	-0.000153304	
-0.24903014	9.3737e-005	
-0.24903225	0.000297109	
-0.24902802	0.00030031	
-0.24902591	0.000165382	
-0.24902908	0.000188713	
-0.24902591	0.000230213	
-0.24902802	2.2195e-005	
-0.24902591	3.1693e-005	
-0.2490238	-9.9105e-005	
-0.2490238	-5.162e-006	
-0.24902591	7.6394e-005	
-0.2490238	0.00013276	
-0.2490238	0.000112732	
-0.24902169	9.797e-005	
-0.2490238	0.000116449	
-0.2490238	9.3531e-005	
-0.2490238	8.7956e-005	
-0.2490238	-0.000182209	
-0.2490238	-5.7915e-005	
-0.2490238	-6.8135e-005	
-0.24902169	-2.2299e-005	
-0.24902591	0.000117997	
-0.24902275	0.00044267	
-0.24902591	0.000298452	
-0.24902169	0.000146077	
-0.2490238	-6.3593e-005	
-0.24902169	-0.000133276	
-0.24902169	0.000418513	
-0.24904069	0.007054962	
-0.2490238	0.001378803	
-0.2490238	0.001243152	
-0.24902169	0.000840434	
-0.2490238	0.000726876	
-0.2490238	0.000612595	
-0.2490238	0.000544047	
-0.24902275	0.000511218	
-0.24902064	0.000518238	
-0.24901958	0.000535375	
-0.24901958	0.000480248	
-0.24902169	0.000480145	
-0.24902169	0.000508431	
-0.24902169	0.000472402	
-0.24901958	0.000449794	
-0.24901958	0.000433482	
-0.2490238	0.000427495	
-0.24901958	0.000424191	
-0.2490238	0.000416449	
-0.24901958	0.000412526	
-0.24902169	0.000381555	
-0.24901958	0.000377736	
-0.24901958	0.000375568	
-0.24901747	0.000122849	
-0.24901958	0.000138747	
-0.24901958	0.000152065	
-0.24901958	0.000163833	
-0.24901747	0.000164246	
-0.24902169	0.000189642	
-0.24901747	0.00017746	
-0.24901747	0.000183758	
-0.24901958	0.000203992	
-0.24901747	0.000205644	
-0.24901747	0.00021638	
-0.24901958	0.000188197	
-0.24901536	0.00017044	
-0.24901536	0.000174467	
-0.24901958	0.000169924	
-0.24901747	0.00017044	
-0.24901641	0.000163524	
-0.24901747	0.000156917	
-0.24901536	0.000167653	
-0.24901325	0.000177151	
-0.24901747	0.00017488	
-0.24901536	0.000137509	
-0.24901536	0.000123056	
-0.24901536	0.000133895	
-0.24901536	0.000161769	
-0.24901536	0.000146077	
-0.24901747	0.000106125	
-0.24901325	0.000105919	
-0.24901325	-0.000292774	
-0.24901536	-0.000221851	
-0.24901536	8.1349e-005	
-0.24901958	0.000571507	
-0.24901536	0.00021256	
-0.24901747	0.000178596	
-0.24901325	0.000135341	
-0.2490143	0.000108809	
-0.24901536	0.000105712	
-0.2490143	0.000100138	
-0.24901113	5.781e-006	
-0.24901747	-1.4763e-005	
-0.24901536	-1.7447e-005	
-0.24901325	4.0365e-005	
-0.24901536	4.2429e-005	
-0.24901325	-4.0468e-005	
-0.24901641	0.000184274	
-0.24901325	9.9931e-005	
-0.24901219	7.6084e-005	
-0.24901747	5.8844e-005	
-0.24901113	1.5176e-005	
-0.24901325	6.4522e-005	
-0.24901536	5.7708e-005	
-0.24901113	-3.51e-006	
-0.24897524	-0.015536833	
-0.24901536	-0.000360083	
-0.24904386	-8.5891e-005	
-0.24904491	0.000104783	
-0.24905125	0.000127598	
-0.24905125	0.000103957	
-0.24905336	0.000105506	
-0.24905336	7.5258e-005	
-0.24905336	4.8107e-005	
-0.24905547	3.9126e-005	
-0.24905336	4.7488e-005	
-0.24905336	5.4405e-005	
-0.24905547	2.9422e-005	
-0.24905336	4.7178e-005	
-0.24905336	5.4714e-005	
-0.24905336	3.6648e-005	
-0.24905125	2.1886e-005	
-0.24905547	7.7013e-005	
-0.24905547	6.638e-005	
-0.24905547	6.5348e-005	
-0.24905336	4.9346e-005	
-0.24905441	6.3489e-005	
-0.24905547	7.0819e-005	
-0.24905547	6.989e-005	
-0.24905336	5.8741e-005	
-0.24905547	4.7075e-005	
-0.24905336	4.2842e-005	
-0.24905547	3.2932e-005	
-0.24905547	2.3331e-005	
-0.24905547	4.2017e-005	
-0.24905547	2.4363e-005	
-0.24905758	2.8596e-005	
-0.24905336	2.374e-006	
-0.24905758	1.239e-006	
-0.24905336	4.7488e-005	
-0.24905969	5.4095e-005	
-0.24905547	3.9539e-005	
-0.24905547	3.0351e-005	
-0.24905547	3.6235e-005	
-0.24905547	4.5114e-005	
-0.24905547	4.7901e-005	
-0.24905547	4.9759e-005	
-0.24905547	1.4659e-005	
-0.24905758	1.7447e-005	
-0.24905547	2.488e-005	
-0.24905758	4.0468e-005	
-0.24905758	1.5898e-005	
-0.24905864	2.3434e-005	
-0.24905758	7.278e-005	
-0.24905653	4.0984e-005	
-0.24905547	5.1824e-005	
-0.24905758	7.7013e-005	
-0.24905758	7.4948e-005	
-0.24905758	7.9181e-005	
-0.24905758	6.9787e-005	
-0.24905758	0.00010148	
-0.24905758	7.2368e-005	
-0.24905547	6.2147e-005	
-0.24905758	5.1927e-005	
-0.24905758	-2.0853e-005	
-0.24905547	4.6043e-005	
-0.24905758	1.6105e-005	
-0.24905758	-1.2595e-005	
-0.24905969	6.0908e-005	
-0.24905758	5.4405e-005	
-0.24905547	3.3551e-005	
-0.24905758	1.8892e-005	
-0.24905441	-9.704e-006	
-0.24905758	6.194e-006	
-0.24905547	4.5733e-005	
-0.24905653	4.336e-006	
-0.24905864	-0.000322505	
-0.24904069	9.9931e-005	
-0.24903225	7.5361e-005	
-0.24903014	3.7061e-005	
-0.24902802	3.0041e-005	
-0.24902802	4.4701e-005	
-0.24902697	3.7887e-005	
-0.24902697	-8.9298e-005	
-0.24900058	-2.2815e-005	
-0.24884646	-2.4983e-005	
-0.23987062	1.4246e-005	
-0.22671667	-3.9332e-005	
-0.21278578	-6.5761e-005	
-0.19937004	-6.6277e-005	
-0.18559643	-0.000116758	
-0.17290693	-0.00010468	
-0.16074526	-5.0275e-005	
-0.15129226	-6.8445e-005	
-0.14532173	4.026e-006	
-0.14012918	3.9126e-005	
-0.13563016	-0.000591535	
-0.13165263	2.746e-005	
-0.12792527	3.4997e-005	
-0.12416306	3.9745e-005	
-0.11954582	3.51e-006	
-0.11396588	-4.7075e-005	
-0.10915441	-6.1941e-005	
-0.10254838	-4.563e-005	
-0.09640051	-1.9098e-005	
-0.09023259	-2.0028e-005	
-0.08420611	-1.8273e-005	
