#INFO
#COMMENT: test-roteLED-625nm

#DATA:
-0.43860061	-6.4212e-005	
-0.43860483	-0.000152891	
-0.43860272	-0.000297832	
-0.43859956	-0.000214728	
-0.43860483	-0.000142361	
-0.43860272	-9.2911e-005	
-0.438608	0.00053682	
-0.43859744	-8.1452e-005	
-0.43859956	-0.000143806	
-0.4385985	-0.000125843	
-0.4385985	-0.000142154	
-0.43859956	-0.00013916	
-0.4385985	-0.00016373	
-0.43860061	-0.000150723	
-0.4385985	-0.000139057	
-0.43860061	-0.000153716	
-0.4385985	-0.000151136	
-0.4385985	-0.000151858	
-0.43860272	-0.000144632	
-0.43859639	-0.000202856	
-0.4385985	-0.000115003	
-0.4385985	-0.000143187	
-0.43859639	-0.000150413	
-0.43859639	-0.000149381	
-0.43859639	-0.000144012	
-0.43859533	-0.000143806	
-0.43860061	-0.000140502	
-0.43859639	-0.000145458	
-0.43859217	-0.000148142	
-0.43859428	-0.000144219	
-0.4385985	-0.000146903	
-0.43859639	-0.000149174	
-0.43859428	-0.000149174	
-0.43859428	-0.000151136	
-0.4385985	-0.000158672	
-0.4385985	-0.000169305	
-0.43859639	-0.000154439	
-0.43859428	-0.000143187	
-0.4385985	-0.000142154	
-0.43859428	-0.000144632	
-0.43859428	-0.000148968	
-0.43859639	-0.000154852	
-0.4385985	-0.000155471	
-0.43859428	-0.000160736	
-0.43859428	-0.000153097	
-0.43859217	-0.000148658	
-0.43859006	-0.000147729	
-0.43859639	-0.000148555	
-0.43859428	-0.000154336	
-0.43859428	-0.000151032	
-0.43859639	-0.000145767	
-0.43859217	-0.000149587	
-0.43859006	-0.000144632	
-0.43859217	-0.000146077	
-0.43859428	-0.000153716	
-0.43859217	-0.000151239	
-0.43859428	-0.000149897	
-0.43859217	-0.000148658	
-0.43859006	-0.00015351	
-0.43859217	-0.000153407	
-0.43859006	-0.000155368	
-0.43859111	-0.000167137	
-0.43859006	-0.000166724	
-0.43858794	-0.000180248	
-0.43859006	-0.000195423	
-0.43859006	-0.000175602	
-0.43859217	-0.000157846	
-0.43859006	-0.000150723	
-0.43858794	-0.000141638	
-0.43859006	-0.0001149	
-0.43858583	-0.000113765	
-0.43859006	-0.00013596	
-0.43858372	-0.000143599	
-0.43859217	-0.00014969	
-0.43859006	-0.000146903	
-0.43858794	-0.000164556	
-0.43858583	-0.000153097	
-0.43858478	-0.000158672	
-0.43858372	-0.000159601	
-0.43858794	-0.000150619	
-0.43858794	-0.000146593	
-0.43858372	-0.000150723	
-0.43858583	-0.000168169	
-0.43858267	-0.000158052	
-0.43858161	-0.000217516	
-0.43859006	-0.000222471	
-0.43858583	-0.000229904	
-0.43858161	-0.001693051	
-0.43858794	-0.000206056	
-0.43858583	-0.000117894	
-0.43858583	-0.000436373	
-0.43858372	-0.00018448	
-0.43858161	-0.000287199	
-0.4385795	-0.000273778	
-0.4385795	-0.000283895	
-0.43857528	-4.8107e-005	
-0.43857105	-0.000137199	
-0.43856472	-0.000168789	
-0.43854361	-0.000168066	
-0.43853516	-0.000176428	
-0.43853094	-0.000180351	
-0.43853094	-0.000177873	
-0.43853094	-0.000190365	
-0.43852672	-0.000160943	
-0.43852461	-0.000164246	
-0.4385225	-0.000158259	
-0.43852461	-0.000178596	
-0.43852038	-0.000177357	
-0.4385225	-0.000170647	
-0.4385225	-0.000170853	
-0.43852883	-0.000170337	
-0.43854361	-0.000170544	
-0.43855416	-0.000167447	
-0.43858055	-0.000176015	
-0.43856683	-0.00017075	
-0.4385605	-0.000183758	
-0.43855205	-0.000184377	
-0.438551	-0.000177564	
-0.43855205	-0.000177667	
-0.43854994	-0.00019532	
-0.43854994	-0.000308981	
-0.43854783	-0.000168479	
-0.43854783	-0.000247763	
-0.43854677	-0.000246008	
-0.43854572	-0.00018128	
-0.43854783	-0.00012925	
-0.43855205	-8.1246e-005	
-0.43855205	2.8596e-005	
-0.43854994	6.1115e-005	
-0.43855205	-5.3579e-005	
-0.43854783	-5.0688e-005	
-0.43854783	-8.6511e-005	
-0.43854361	-0.000110874	
-0.43854361	-0.000187474	
-0.43854783	-0.000184584	
-0.43854572	-0.000177151	
-0.43854783	-0.000139677	
-0.43854572	-0.00021607	
-0.43854783	-0.000298864	
-0.43854572	-0.000208121	
-0.43854361	-0.000143393	
-0.43854994	-0.000154955	
-0.43854572	6.2147e-005	
-0.43854994	6.6277e-005	
-0.43854466	7.1438e-005	
-0.43854572	-0.000128321	
-0.43854361	-0.000348727	
-0.43854361	-0.000288644	
-0.43854361	-0.000164659	
-0.43854572	-9.6628e-005	
-0.4385415	-0.0001181	
-0.43854572	-0.00018541	
-0.43854572	-0.000166724	
-0.43854572	-0.00018128	
-0.43854361	-0.000231349	
-0.4385415	-0.000272023	
-0.43854255	-0.000242395	
-0.43853727	-0.000212767	
-0.43853939	-0.000214625	
-0.43853939	-0.000224742	
-0.43854572	-0.000144632	
-0.43853939	-0.000410977	
-0.43854361	-0.000297935	
-0.43853939	-0.000253648	
-0.43854361	-0.000193772	
-0.43854783	0.000563145	
-0.43854361	-9.704e-006	
-0.4385415	-0.000140709	
-0.4385415	-0.000121714	
-0.4385415	-0.000112113	
-0.4385415	-0.000102512	
-0.43854255	-0.000189952	
-0.4385415	-0.000464969	
-0.4385415	-4.5114e-005	
-0.43854361	-0.000296284	
-0.43853939	-2.6944e-005	
-0.4385415	-0.000133276	
-0.4385415	-4.7591e-005	
-0.43853939	-0.000162182	
-0.43853939	-0.000157639	
-0.43854361	-0.00013947	
-0.43854361	-9.6008e-005	
-0.43854361	-0.00012161	
-0.43854361	-0.00011201	
-0.43854361	-0.000115726	
-0.43853939	-0.000176944	
-0.43853939	-0.000179422	
-0.4385415	-0.000143187	
-0.4385415	-0.000127701	
-0.43853939	-0.00011903	
-0.4385415	-0.000143496	
-0.43853939	-0.000149897	
-0.43854572	-0.000141225	
-0.43853939	-0.000141638	
-0.43853939	-0.000147006	
-0.43853939	-0.000163317	
-0.43853939	-0.000173847	
-0.43853305	-0.000153407	
-0.4385415	-0.00016373	
-0.43853939	-0.000155368	
-0.4385415	-0.00017137	
-0.43853939	-0.000159085	
-0.43853727	-0.000146077	
-0.43853833	-0.000137612	
-0.43853833	-0.000149587	
-0.43853939	-0.000158465	
-0.43853727	-0.000166827	
-0.43853727	-0.00018128	
-0.43853939	-0.000179835	
-0.43853939	-0.000165795	
-0.43853833	-0.000144012	
-0.43853939	-0.000125637	
-0.43853939	-0.000112732	
-0.43853939	-0.000143083	
-0.43853727	-0.000148761	
-0.43853939	-0.000172402	
-0.43853727	-0.00018541	
-0.43853939	-0.000170544	
-0.43853939	-0.000166208	
-0.43853939	-0.000150516	
-0.43853516	-0.000149174	
-0.43853727	-0.000158156	
-0.43853516	-0.000165692	
-0.43853727	-0.000171576	
-0.43853939	-0.000138644	
-0.4385415	-0.000165588	
-0.43854361	-0.000169924	
-0.43853939	-0.000157123	
-0.43853939	-0.000143909	
-0.43854044	-0.000151342	
-0.43854361	-0.000179009	
-0.43853727	-0.000181796	
-0.43853939	-0.000184377	
-0.43853727	-0.000195939	
-0.4385415	-0.000183758	
-0.43853727	-0.000176118	
-0.43853622	-0.000165898	
-0.4385415	-0.000162078	
-0.43853727	-0.00016084	
-0.43853939	-0.000152271	
-0.4385415	-0.000152994	
-0.43853939	-0.000150826	
-0.43853727	-0.000169098	
-0.43854044	-0.000187887	
-0.43853727	-0.000180248	
-0.43853939	-0.000177873	
-0.4385415	-0.000173641	
-0.4385415	-0.000161459	
-0.43853939	-0.000155988	
-0.43853939	-0.000162491	
-0.43853939	-0.000146387	
-0.4385415	-0.000144838	
-0.4385415	-0.000154646	
-0.4385415	-0.000158362	
-0.43853727	-0.000154646	
-0.43853939	-0.00017106	
-0.4385415	-0.000168066	
-0.4385415	-0.000180661	
-0.43854361	-0.000141122	
-0.43854572	-0.000137302	
-0.4385415	-0.000116449	
-0.4385415	-0.000117791	
-0.43853939	-0.000142774	
-0.43853939	-0.000144632	
-0.4385415	-0.000131418	
-0.43853939	-0.000152374	
-0.43853939	-0.000162078	
-0.43854361	-0.000155368	
-0.4385415	-0.000144632	
-0.43853939	-0.000128321	
-0.43853727	-0.000154129	
-0.43853939	-0.000167034	
-0.4385415	-0.000138025	
-0.4385415	-0.000114384	
-0.43854361	-7.4845e-005	
-0.43853727	-0.000161149	
-0.43853939	-0.000144632	
-0.43853939	-0.000120785	
-0.4385415	-0.000152891	
-0.4385415	-0.000158672	
-0.43853939	-0.000152684	
-0.43853939	-0.000152168	
-0.43853939	-0.000158052	
-0.43854044	-0.00016404	
-0.43853833	-0.000157846	
-0.4385415	-0.0001532	
-0.43853939	-0.000163833	
-0.43853939	-0.000188919	
-0.43853727	-0.000166827	
-0.43853939	-0.00017746	
-0.43853727	-0.000175705	
-0.43853833	-0.000178183	
-0.43853939	-0.000182519	
-0.43854361	-0.000160943	
-0.43853727	-0.000184997	
-0.43853727	-0.000185203	
-0.4385415	-0.000162904	
-0.4385415	-0.000182725	
-0.43853939	-0.000241466	
-0.43854044	-0.000261803	
-0.4385415	-0.000225981	
-0.4385415	-2.5602e-005	
-0.4385415	-0.000151239	
-0.43854361	-0.000211115	
-0.4385415	-0.000159911	
-0.4385415	-0.000202546	
-0.43854361	-0.000196559	
-0.43853939	-0.000195423	
-0.4385415	-0.000186235	
-0.4385415	-0.000193049	
-0.4385415	-0.000184584	
-0.4385415	-0.000188919	
-0.4385415	-0.00018479	
-0.4385415	-0.00018861	
-0.4385415	-0.000168789	
-0.43854255	-0.000160014	
-0.4385415	-0.000161872	
-0.4385415	-0.000179422	
-0.4385415	-0.000165072	
-0.43854361	-0.000168066	
-0.43853939	-0.000175705	
-0.43854361	-0.000176531	
-0.43853939	-0.000186235	
-0.43854044	-0.00017044	
-0.43854044	-0.000158981	
-0.43854361	-0.000216586	
-0.43854361	-0.000167653	
-0.43853939	-0.00015382	
-0.4385415	-0.00015702	
-0.43853939	-0.000174363	
-0.4385415	-0.000117997	
-0.4385415	-0.000292567	
-0.4385415	-0.000196146	
-0.43854255	-0.000272127	
-0.43853939	-0.00027192	
-0.43853939	-0.00026552	
-0.43853727	-0.000290296	
-0.43853727	-0.000508741	
-0.43853305	-0.000901858	
-0.43853094	-0.001519823	
-0.43852672	-0.003256439	
-0.4385225	-0.010758614	
-0.43851616	-0.029233701	
-0.43850772	-0.069863381	
-0.43843805	-0.096406632	
-0.43842538	-0.11157035	
-0.43793558	-0.085620949	
-0.43772868	-0.051815638	
-0.4377519	-0.040152204	
-0.43770545	-0.034965389	
-0.43767167	-0.031317079	
-0.43738138	-0.02572135	
-0.4370837	-0.019424962	
-0.43700347	-0.015678369	
-0.4368198	-0.013785354	
-0.43677335	-0.013356	
-0.43676279	-0.012956482	
-0.43669523	-0.011807478	
-0.43665301	-0.010256066	
-0.43662134	-0.00947654	
-0.43649045	-0.008137482	
-0.43624132	-0.005680702	
-0.4358328	-0.002736756	
-0.43545384	-0.001117105	
-0.43520577	-0.000696628	
-0.4351171	-0.000575946	
-0.43499887	-0.000453407	
-0.43482575	-0.000304852	
-0.43460407	-0.000232588	
-0.43456185	-0.000216483	
-0.43456185	-0.000227633	
-0.43456185	-0.000234136	
-0.43455551	-0.000231349	
-0.43455762	-0.000230007	
-0.43461146	-0.016622657	
-0.43743522	-0.000185822	
-0.44146974	-0.000171783	
-0.44475902	-0.000180041	
-0.44771367	-0.000118513	
-0.45012891	-8.3517e-005	
-0.45223271	-5.6056e-005	
-0.45387735	-6.0908e-005	
-0.45395652	-6.5967e-005	
-0.45391007	-7.7323e-005	
-0.45387207	-8.073e-005	
-0.45386152	-7.5774e-005	
-0.45384674	-6.8858e-005	
-0.45384252	-7.6807e-005	
-0.45383407	-7.5568e-005	
-0.45382985	-7.0922e-005	
-0.45382351	-5.9463e-005	
-0.45381507	-6.4831e-005	
-0.45381296	-7.5981e-005	
-0.45381085	-6.2767e-005	
-0.45380874	-6.8961e-005	
-0.45380662	-7.2161e-005	
-0.45380768	-7.5878e-005	
-0.4538024	-6.8961e-005	
-0.45379712	-7.1335e-005	
-0.45379607	-7.4535e-005	
-0.45378868	-7.371e-005	
-0.45378762	-7.02e-005	
-0.45378762	-7.9491e-005	
-0.45378023	-7.4948e-005	
-0.45378551	-6.5348e-005	
-0.45378129	-6.5348e-005	
-0.45377918	-6.5967e-005	
-0.45377918	-6.0392e-005	
-0.45377285	-5.9876e-005	
-0.45377496	-0.000223193	
-0.45376651	-0.000528562	
-0.45376862	-0.000170234	
-0.45377073	0.000419546	
-0.45376651	-2.478e-006	
-0.45376651	-4.1707e-005	
-0.45376018	-0.000249518	
-0.4537644	-0.000276256	
-0.45376123	-0.000348314	
-0.45376229	-0.000469202	
-0.45375807	-0.000139883	
-0.45375807	0.000110977	
-0.45376229	0.000667722	
-0.45375596	-1.4866e-005	
-0.45374962	-7.0716e-005	
-0.45375384	-6.989e-005	
-0.45375279	-8.7337e-005	
-0.45375173	-6.3489e-005	
-0.45375384	-4.15e-005	
-0.45375384	-8.5891e-005	
-0.45375173	-7.5361e-005	
-0.45374962	-6.5657e-005	
-0.45374962	-7.278e-005	
-0.4537454	-7.6394e-005	
-0.45374962	-6.287e-005	
-0.4537454	-6.0186e-005	
-0.45374751	-5.234e-005	
-0.4537454	-5.4198e-005	
-0.45374751	-7.2161e-005	
-0.45374962	-5.5231e-005	
-0.45374329	-6.5348e-005	
-0.45374118	-5.8844e-005	
-0.45374118	-6.5348e-005	
-0.45374118	-8.1659e-005	
-0.45374118	-8.5375e-005	
-0.45374329	-7.4535e-005	
-0.45373907	-7.6807e-005	
-0.45373695	-7.5361e-005	
-0.45373907	-8.5582e-005	
-0.45373907	-8.8575e-005	
-0.45373273	-6.8445e-005	
-0.45373695	-6.3283e-005	
-0.4537359	-6.7103e-005	
-0.45373907	-8.5685e-005	
-0.45373484	-8.3207e-005	
-0.45373273	-7.629e-005	
-0.45373273	-6.9064e-005	
-0.45373062	-7.309e-005	
-0.45373062	-7.371e-005	
-0.45372957	-6.3283e-005	
-0.45373273	-6.9477e-005	
-0.45373062	-7.5052e-005	
-0.45372851	-7.9491e-005	
-0.45372745	-7.3297e-005	
-0.45372218	-6.8858e-005	
-0.4537264	-6.8445e-005	
-0.4537264	-6.6173e-005	
-0.45372534	-7.1955e-005	
-0.4537264	-6.2457e-005	
-0.4537264	-6.4935e-005	
-0.45372429	-7.1851e-005	
-0.45372429	-7.7529e-005	
-0.45373062	-0.000115416	
-0.45372429	-6.6173e-005	
-0.4537264	-4.3049e-005	
-0.45372429	-9.5595e-005	
-0.45372323	-8.1968e-005	
-0.45372534	-8.0936e-005	
-0.4537264	-9.3324e-005	
-0.45372429	3.8094e-005	
-0.45372429	-5.6676e-005	
-0.45372006	-6.1218e-005	
-0.45372006	-6.3076e-005	
-0.45372218	-6.6483e-005	
-0.45372006	-7.3606e-005	
-0.45372006	-7.7736e-005	
-0.45371795	-0.000110151	
-0.45371584	-0.000122436	
-0.45371901	-9.6008e-005	
-0.45372006	-5.6366e-005	
-0.45371584	-6.7206e-005	
-0.45371584	-4.9243e-005	
-0.45372006	-4.9862e-005	
-0.45371373	-5.3579e-005	
-0.45371795	-5.234e-005	
-0.45371584	-5.2546e-005	
-0.45371584	-6.9374e-005	
-0.45371795	-7.8458e-005	
-0.45371795	-5.5747e-005	
-0.45371373	-7.0406e-005	
-0.45370845	-6.9167e-005	
-0.45371162	-7.2368e-005	
-0.45371162	-8.2794e-005	
-0.45371584	-7.9078e-005	
-0.45371162	-7.1438e-005	
-0.45371584	-7.1542e-005	
-0.45370951	-7.5878e-005	
-0.45371373	-7.5568e-005	
-0.45371056	-7.2368e-005	
-0.45371162	-7.9181e-005	
-0.45371056	-7.9697e-005	
-0.45371162	-8.3001e-005	
-0.45370951	-7.2161e-005	
-0.45371162	-0.000119133	
-0.4537074	-0.000141535	
-0.45370634	-6.194e-006	
-0.45370951	1.0736e-005	
-0.45370951	-5.1721e-005	
-0.45370845	-6.3902e-005	
-0.45370951	-6.9993e-005	
-0.4537074	-7.8871e-005	
-0.45370529	-7.98e-005	
-0.45370529	-8.9608e-005	
-0.4537074	-0.00010148	
-0.45370212	-9.2808e-005	
-0.45370529	-7.6084e-005	
-0.4537074	-8.6407e-005	
-0.45370529	-8.7233e-005	
-0.45370106	-9.2292e-005	
-0.45370317	-8.713e-005	
-0.45370317	-7.3193e-005	
-0.4537074	-8.4136e-005	
-0.45370529	-7.1645e-005	
-0.45370106	-6.9374e-005	
-0.45370529	-7.7323e-005	
-0.45370317	-9.5595e-005	
-0.45368629	-9.1982e-005	
-0.45369262	-7.2058e-005	
-0.45367995	-5.6676e-005	
-0.45368417	-3.9126e-005	
-0.45368417	-4.532e-005	
-0.45368417	-4.3049e-005	
-0.45368629	-5.6469e-005	
-0.45368629	-5.585e-005	
-0.45368629	-5.585e-005	
-0.45368629	-4.8624e-005	
-0.45368417	-5.3992e-005	
-0.45368417	-8.4859e-005	
-0.45368206	-7.7116e-005	
-0.45368206	2.9938e-005	
-0.45368629	-1.5795e-005	
-0.45367995	-0.000139677	
-0.45367784	-0.000757846	
-0.45367995	-0.00047395	
-0.45368417	0.000136476	
-0.45367995	-0.000442774	
-0.45368206	0.000422023	
-0.45368417	0.000396937	
-0.45368417	0.000135547	
-0.45367995	-0.000107571	
-0.45367678	-0.000413868	
-0.45367995	-0.000111803	
-0.45368206	0.000173331	
-0.45368417	7.02e-006	
-0.45368206	-5.5127e-005	
-0.45368417	-5.4198e-005	
-0.45368206	-7.4432e-005	
-0.45367678	-8.6924e-005	
-0.45367995	-7.7323e-005	
-0.45369156	0.000379078	
-0.45367151	-3.3551e-005	
-0.45361873	-3.5719e-005	
-0.45359128	-4.3875e-005	
-0.45356806	-5.4818e-005	
-0.45355117	-5.5231e-005	
-0.45353217	-6.5761e-005	
-0.45349628	-6.4831e-005	
-0.45347516	-6.7722e-005	
-0.45344772	-6.5554e-005	
-0.45342449	-6.2663e-005	
-0.45339705	-6.1631e-005	
-0.45338438	-7.4845e-005	
-0.45336749	-9.1672e-005	
-0.45334427	-0.000100551	
-0.45333266	-0.000120681	
-0.4533126	-0.000129147	
-0.45328093	-0.000136786	
-0.45321337	-0.000137199	
-0.45298008	-0.00013947	
-0.45277318	-0.000144012	
-0.45262751	-0.000143393	
-0.45230871	-0.000152581	
-0.4515339	-0.000149174	
-0.45117604	-0.000149277	
-0.4507348	-0.00015351	
-0.45041812	-0.000150206	
-0.44997479	-0.00013947	
-0.44941426	-0.000136786	
-0.44896457	-0.000139677	
-0.44860144	-0.000136786	
-0.44814331	-0.000141638	
-0.44779073	-0.00013658	
-0.44745822	-0.000144838	
-0.44728721	-0.000144838	
-0.44716898	-0.000149794	
-0.44699691	-0.00014298	
-0.44672562	-0.000140193	
-0.44642794	-0.00015382	
-0.44617776	-0.000149794	
-0.44604898	-0.000157123	
-0.44589275	-0.000163833	
-0.44568162	-0.000182932	
-0.44551273	-0.000176531	
-0.44533116	-0.000142154	
-0.44503981	-0.000169718	
-0.44472313	-0.000169305	
-0.44441067	-0.000176428	
-0.44417949	-0.000197901	
-0.44393881	-0.000228252	
-0.44359257	-0.000395492	
-0.44338356	-0.000653372	
-0.44328644	-0.000934377	
-0.4431471	-0.001607986	
-0.44299721	-0.003087134	
-0.44285787	-0.006571206	
-0.44262352	-0.016364673	
-0.44231212	-0.034116388	
-0.44191521	-0.074497772	
-0.4416133	-0.10408817	
-0.44154363	-0.10886893	
-0.44016395	-0.11634852	
-0.4400795	-0.10863056	
-0.43995916	-0.091375109	
-0.43969106	-0.094212707	
-0.43769068	-0.079689833	
-0.4373001	-0.049727721	
-0.43691691	-0.030631188	
-0.43661079	-0.018367426	
-0.43640178	-0.014158238	
-0.43624766	-0.010741271	
-0.43600275	-0.007552451	
-0.43582436	-0.005108059	
-0.43548023	-0.002326811	
-0.43509493	-0.0008266	
-0.43488064	-0.000352753	
-0.43460513	-0.000215141	
-0.43422616	-0.000179628	
-0.43372369	-0.000164763	
-0.43316105	-0.000149484	
-0.43251502	-0.00012192	
-0.43196082	-0.000100344	
-0.43144357	-8.3207e-005	
-0.43101077	-7.4742e-005	
-0.43062864	-6.9787e-005	
-0.43008817	-6.256e-005	
-0.42946642	-5.4405e-005	
-0.42869163	-5.1101e-005	
-0.42789675	-5.4611e-005	
-0.42736895	-5.203e-005	
-0.42694037	-5.3372e-005	
-0.42653607	-5.3372e-005	
-0.42606527	-5.7915e-005	
-0.42554591	-5.2546e-005	
-0.42487349	-3.6855e-005	
-0.42441535	-4.5217e-005	
-0.42380943	-5.2959e-005	
-0.42327318	-4.4701e-005	
-0.42258809	-3.9539e-005	
-0.42204551	-3.2519e-005	
-0.4213013	-4.4288e-005	
-0.42064471	-2.9628e-005	
-0.4202098	-5.8328e-005	
-0.41987623	-3.0661e-005	
-0.41951627	-2.0234e-005	
-0.41917003	-4.2017e-005	
-0.41875623	-3.0867e-005	
-0.41834243	-2.5499e-005	
-0.41787057	-3.3655e-005	
-0.41726465	-2.5086e-005	
-0.41664395	-2.808e-005	
-0.41593458	-2.5293e-005	
-0.41487158	-2.3331e-005	
-0.41405137	-2.4983e-005	
-0.41310977	-1.4659e-005	
-0.41195599	-2.106e-005	
-0.4108951	-2.6531e-005	
-0.40958192	-1.6208e-005	
-0.40815792	-2.0131e-005	
-0.40699992	-1.7963e-005	
-0.4062441	-1.9408e-005	
-0.40526661	-1.1459e-005	
-0.40417194	-2.0647e-005	
-0.40329473	-2.0337e-005	
-0.40258324	-1.9305e-005	
-0.40204172	-2.075e-005	
-0.40135557	-2.2712e-005	
-0.40084465	-6.607e-006	
-0.40010573	-1.2801e-005	
-0.39945442	-1.8169e-005	
-0.39874188	-1.5382e-005	
-0.39805151	-1.786e-005	
-0.39749734	-1.1769e-005	
-0.39682809	-6.607e-006	
-0.39612505	-1.3833e-005	
-0.39566586	-1.3214e-005	
-0.39527529	-8.878e-006	
-0.3947137	-1.6311e-005	
-0.394074	-2.137e-005	
-0.39296455	-1.3214e-005	
-0.39179494	2.684e-006	
-0.3905736	-2.478e-006	
-0.38915169	-9.704e-006	
-0.38789235	-1.0117e-005	
-0.38677974	-1.1562e-005	
-0.38596375	-3.923e-006	
-0.38491131	-7.33e-006	
-0.38398026	-6.504e-006	
-0.38327511	-1.652e-006	
-0.3819841	-9.188e-006	
-0.38058542	-4.129e-006	
-0.37896083	-4.336e-006	
-0.37727713	-4.955e-006	
-0.37551217	-1.961e-006	
-0.37422116	-7.846e-006	
-0.37285837	-6.401e-006	
-0.37178904	0	
-0.37062998	-1.0117e-005	
-0.36934319	-5.781e-006	
-0.36840475	-4.439e-006	
-0.3672668	-1.549e-006	
-0.36600326	-2.478e-006	
-0.36446312	-1.032e-006	
-0.36233607	-3.716e-006	
-0.35941414	-2.065e-006	
-0.35643521	2.684e-006	
-0.35401892	7.639e-006	
-0.35226555	6.813e-006	
-0.35057974	1.3421e-005	
-0.34924228	1.724e-005	
-0.34734852	1.6518e-005	
-0.34500297	2.1576e-005	
-0.34345861	1.8273e-005	
-0.34187203	1.7137e-005	
-0.34046596	3.304e-006	
-0.33913483	2.168e-006	
-0.33732868	-1.0117e-005	
-0.33533675	-8.465e-006	
-0.33332689	-4.129e-006	
-0.33057913	-3.2e-006	
-0.32871493	3.923e-006	
-0.32685494	7.02e-006	
-0.32520713	4.026e-006	
-0.3235551	0	
-0.32226198	-1.3421e-005	
-0.32139005	-3.3035e-005	
-0.3207324	-9.4253e-005	
-0.32007687	-2.1576e-005	
-0.3193295	-2.168e-006	
-0.31840267	3.2e-006	
-0.31778408	1.1149e-005	
-0.31714544	0.000115623	
-0.31629462	1.6518e-005	
-0.3152844	-3.304e-006	
-0.31391528	9.291e-006	
-0.31237726	1.1253e-005	
-0.3110113	-7.5052e-005	
-0.30993141	-7.1438e-005	
-0.30803026	-4.1707e-005	
-0.30613121	-5.575e-006	
-0.30396827	-2.0957e-005	
-0.3022677	3.407e-006	
-0.3011287	3.6855e-005	
-0.29979335	4.4907e-005	
-0.29827855	4.0365e-005	
-0.29680386	1.0736e-005	
-0.29543579	2.271e-006	
-0.29470531	7.02e-006	
-0.29412578	7.433e-006	
-0.2934713	1.239e-006	
-0.29292872	-2.065e-006	
-0.29192483	-6.19e-007	
-0.29063804	-2.478e-006	
-0.28930481	-5.16e-007	
-0.28789874	-2.271e-006	
-0.28616965	9.394e-006	
-0.28455667	-2.06e-007	
-0.28360768	-6.194e-006	
-0.28236313	2.06e-007	
-0.28120829	1.342e-006	
-0.28016851	-1.1356e-005	
-0.27929869	-1.2182e-005	
-0.27833703	-2.7564e-005	
-0.27773533	1.5176e-005	
-0.27712624	1.8479e-005	
-0.27654777	-1.342e-006	
-0.2758954	-1.1356e-005	
-0.27502875	-7.949e-006	
-0.27441649	-8.052e-006	
-0.2741167	-1.4763e-005	
-0.27399425	-2.5809e-005	
-0.27391508	-2.1989e-005	
-0.27346539	-1.0323e-005	
-0.27273702	-2.8802e-005	
-0.27195903	-2.5602e-005	
-0.27091609	1.032e-006	
-0.26972853	-1.404e-005	
-0.26824117	2.374e-006	
-0.2677387	-1.032e-006	
-0.26764159	8.568e-006	
-0.2676247	5.265e-006	
-0.26761625	1.032e-006	
-0.26761625	6.19e-007	
-0.26761203	-1.1975e-005	
-0.2676057	1.2801e-005	
-0.26760359	7.226e-006	
-0.26760147	6.19e-007	
-0.26759514	-8.26e-007	
-0.26703144	4.336e-006	
-0.26621968	7.433e-006	
-0.26550609	1.2182e-005	
-0.2647091	-2.271e-006	
-0.26383295	-4.749e-006	
-0.26269817	-3.923e-006	
-0.26142828	-2.065e-006	
-0.26010454	-3.923e-006	
-0.25887476	3.716e-006	
-0.25767453	3.82e-006	
-0.25644791	-2.478e-006	
-0.25500911	7.536e-006	
-0.25387644	3.097e-006	
-0.25264243	8.26e-007	
-0.25132292	-1.445e-006	
-0.25027259	7.23e-007	
-0.24945555	-8.878e-006	
-0.24848544	4.749e-006	
-0.24772962	9.911e-006	
-0.24654945	6.813e-006	
-0.2457303	1.342e-006	
-0.24506526	-1.1666e-005	
-0.24447835	1.7447e-005	
-0.24387981	2.7047e-005	
-0.24321478	-1.1769e-005	
-0.24259197	-4.6352e-005	
-0.24173798	-3.1487e-005	
-0.2406032	-7.846e-006	
-0.23953071	0.000150723	
-0.23819747	6.0186e-005	
-0.2369413	2.3641e-005	
-0.23613376	1.8685e-005	
-0.23520376	2.075e-005	
-0.23399192	7.5568e-005	
-0.23272414	3.2312e-005	
-0.23115761	2.271e-006	
-0.23005555	-1.3421e-005	
-0.22919208	-3.6855e-005	
-0.22855449	-1.9615e-005	
-0.22824625	-1.3111e-005	
-0.22795384	-7.226e-006	
-0.22759071	-1.1666e-005	
-0.22713469	1.2801e-005	
-0.22664067	1.5382e-005	
-0.22584896	3.541e-005	
-0.22509631	1.3008e-005	
-0.22440488	-2.4983e-005	
-0.22361951	-2.787e-006	
-0.22308959	1.0943e-005	
-0.22240661	1.7447e-005	
-0.22145445	5.4198e-005	
-0.2207208	-1.9305e-005	
-0.22005788	-2.9422e-005	
-0.2192989	-9.911e-006	
-0.21861697	6.1425e-005	
-0.21798572	2.4776e-005	
-0.21733018	-1.0427e-005	
-0.21674643	-2.5809e-005	
-0.21631046	-1.3421e-005	
-0.21577105	-1.8376e-005	
-0.21515035	-1.0736e-005	
-0.21460354	-1.1149e-005	
-0.21428686	-2.4363e-005	
-0.21396279	-3.1383e-005	
-0.21351099	-2.6531e-005	
-0.21317953	-3.83e-005	
-0.21291562	-3.1487e-005	
-0.2126285	-2.7254e-005	
-0.21213553	-3.3345e-005	
-0.21159717	-3.6029e-005	
-0.21112425	-3.9126e-005	
-0.21070729	-4.7591e-005	
-0.21032304	-5.8947e-005	
-0.20993669	-6.6277e-005	
-0.20952289	-7.1851e-005	
-0.20925266	-7.4948e-005	
-0.20895498	-8.0936e-005	
-0.20863513	-9.064e-005	
-0.20822767	-8.3207e-005	
-0.20791943	-9.5079e-005	
-0.2077442	-0.000101893	
-0.20754152	-0.000104061	
-0.20735046	-0.000109429	
-0.20720795	-0.000112939	
-0.20699155	-0.000117894	
-0.20671287	-0.000124811	
-0.20633918	-0.000136786	
-0.20585782	-0.000145664	
-0.2055327	-0.000158465	
-0.20525296	-0.000168685	
-0.20495317	-0.000169924	
-0.2047146	-0.000169718	
-0.20461009	-0.00017457	
-0.20419313	-0.000196765	
-0.20391445	-0.000211528	
-0.20373288	-0.000211734	
-0.2034542	-0.000230317	
-0.20327791	-0.000237646	
-0.20315124	-0.000249725	
-0.20286622	-0.000265313	
-0.20263821	-0.000272953	
-0.20237642	-0.000304026	
-0.20203018	-0.000330041	
-0.20178	-0.000346869	
-0.20151821	-0.0003734	
-0.20120364	-0.000397144	
-0.20094185	-0.000427392	
-0.20072861	-0.000449071	
-0.20046893	-0.000471679	
-0.19998441	-0.000522781	
-0.19965189	-0.000566139	
-0.19926659	-0.000608465	
-0.19902592	-0.000627977	
-0.19886546	-0.00066607	
-0.19866701	-0.000691363	
-0.19844531	-0.000716036	
-0.19811279	-0.000759291	
-0.19781089	-0.000818341	
-0.19751848	-0.000854474	
-0.19706774	-0.000923641	
-0.19674683	-0.001013251	
-0.19644176	-0.001024193	
-0.19617997	-0.001052996	
-0.19592029	-0.001079114	
-0.19566272	-0.001173471	
-0.19537137	-0.001235102	
-0.1949903	-0.001313147	
-0.19455539	-0.001384379	
-0.19421337	-0.001428977	
-0.19393258	-0.001467586	
-0.19377846	-0.001510222	
-0.19356206	-0.001584861	
-0.19322954	-0.00163142	
-0.19310287	-0.001477084	
-0.19299097	-0.001627084	
-0.19288647	-0.001651344	
-0.19279146	-0.001732177	
-0.19271862	-0.001740539	
-0.19259723	-0.00175396	
-0.19240089	-0.001693258	
-0.19228477	-0.001713079	
-0.1920842	-0.001780594	
-0.19199553	-0.001818171	
-0.19191636	-0.001831489	
-0.19180341	-0.00185131	
-0.19155429	-0.001897353	
-0.19130727	-0.001951757	
-0.1911806	-0.001977256	
-0.19106132	-0.002011427	
-0.19097265	-0.002034347	
-0.19090086	-0.002040954	
-0.19083964	-0.002074092	
-0.19061163	-0.002124677	
-0.19046806	-0.002154822	
-0.19034561	-0.002173094	
-0.19027594	-0.002168655	
-0.19024639	-0.002182386	
-0.19012605	-0.002233487	
-0.18989803	-0.00226136	
-0.18981147	-0.00226869	
-0.18976292	-0.002267244	
-0.18970908	-0.002279013	
-0.18968058	-0.002276639	
-0.18964258	-0.002299557	
-0.1894779	-0.002334863	
-0.18935334	-0.002344567	
-0.18930161	-0.002345393	
-0.18917283	-0.002380906	
-0.18882237	-0.0024286	
-0.1883769	-0.002498903	
-0.18805178	-0.002548456	
-0.18769499	-0.002602654	
-0.18753348	-0.002621443	
-0.18738569	-0.00264849	
-0.18713446	-0.002713218	
-0.186898	-0.002764939	
-0.18674177	-0.002793019	
-0.18650954	-0.002851243	
-0.1863702	-0.002866728	
-0.18624986	-0.002888304	
-0.18616541	-0.002907712	
-0.18615274	-0.002907093	
-0.18612846	-0.002927224	
-0.18586667	-0.003004856	
-0.18561755	-0.003047389	
-0.18552887	-0.00306339	
-0.1854592	-0.003086309	
-0.18538953	-0.003100865	
-0.18527342	-0.003145152	
-0.18512985	-0.003175916	
-0.1848744	-0.003260775	
-0.1846126	-0.003368449	
-0.18427903	-0.003472922	
-0.18410908	-0.003530527	
-0.18399296	-0.003561911	
-0.18377339	-0.003623129	
-0.18362983	-0.003688373	
-0.18337437	-0.003774677	
-0.18288246	-0.003913322	
-0.18246233	-0.004024815	
-0.18217837	-0.004102964	
-0.18193135	-0.004187928	
-0.18169068	-0.004273303	
-0.181431	-0.004344535	
-0.18128532	-0.004364253	
-0.18125154	-0.004366627	
-0.18121354	-0.004389958	
-0.18111009	-0.004459538	
-0.18091797	-0.004496084	
-0.18079235	-0.004560812	
-0.18058862	-0.004656923	
-0.18042711	-0.004690784	
-0.18031733	-0.004747254	
-0.18023288	-0.004772443	
-0.18018643	-0.004798045	
-0.18003231	-0.00491501	
-0.17959529	-0.00511353	
-0.17917516	-0.005254549	
-0.17900731	-0.005349835	
-0.17893342	-0.005395361	
-0.17869063	-0.005563943	
-0.17833384	-0.00575183	
-0.1780066	-0.005978534	
-0.1777068	-0.006158782	
-0.17748723	-0.006295879	
-0.17734366	-0.006397153	
-0.17711671	-0.006545604	
-0.17692036	-0.006734317	
-0.1767768	-0.006842817	
-0.17663746	-0.006948116	
-0.17659312	-0.006970828	
-0.17655301	-0.007073443	
-0.17641789	-0.007235418	
-0.17624055	-0.007397496	
-0.1761181	-0.007526126	
-0.17592598	-0.007745706	
-0.17584153	-0.007798356	
-0.17581408	-0.007819003	
-0.17574864	-0.007911708	
-0.17557657	-0.008092472	
-0.17537812	-0.00828232	
-0.17504243	-0.008505206	
-0.17467086	-0.008734181	
-0.17444707	-0.008935798	
-0.17428873	-0.009126369	
-0.1742085	-0.009263155	
-0.17395516	-0.009469107	
-0.17380315	-0.009652659	
-0.17365219	-0.009810917	
-0.17337351	-0.010075818	
-0.17314761	-0.010357752	
-0.1728816	-0.010575372	
-0.17270848	-0.010819832	
-0.17244669	-0.011056653	
-0.1722609	-0.011236178	
-0.17210256	-0.011428504	
-0.1719685	-0.011602453	
-0.17181438	-0.011679879	
-0.17170459	-0.011811813	
-0.1715642	-0.011949425	
-0.17145547	-0.012063603	
-0.17130768	-0.012183355	
-0.17124435	-0.01228246	
-0.17119157	-0.012347808	
-0.1711599	-0.012413672	
-0.17106173	-0.012536833	
-0.17089811	-0.012802043	
-0.17063209	-0.013089758	
-0.17024996	-0.013417528	
-0.16998078	-0.013760887	
-0.16965143	-0.013961885	
-0.16939809	-0.014109511	
-0.16911941	-0.014315155	
-0.16868238	-0.014618147	
-0.1684132	-0.014804073	
-0.16805324	-0.015099737	
-0.16751804	-0.015332428	
-0.16727525	-0.015463743	
-0.16718236	-0.015500701	
-0.16707892	-0.015577095	
-0.16691213	-0.015780984	
-0.16657539	-0.01595225	
-0.16637483	-0.016081603	
-0.16616582	-0.016246469	
-0.16590192	-0.016411025	
-0.16563907	-0.016630812	
-0.16532555	-0.016861747	
-0.16507221	-0.017047776	
-0.16485369	-0.017174032	
-0.16471013	-0.017226062	
-0.1644969	-0.017379263	
-0.16409366	-0.01764726	
-0.16382342	-0.017837729	
-0.16364608	-0.017908135	
-0.16351518	-0.017973276	
-0.16343495	-0.017986593	
-0.16333467	-0.018054315	
-0.16314572	-0.01818501	
-0.16291876	-0.01829671	
-0.16280687	-0.018355348	
-0.16262108	-0.018459305	
-0.16227062	-0.018615809	
-0.16193704	-0.018751666	
-0.16172592	-0.018848397	
-0.16155914	-0.018944611	
-0.16133218	-0.019051356	
-0.16109572	-0.019188968	
-0.16075159	-0.019341652	
-0.16010767	-0.019594577	
-0.15949964	-0.019760475	
-0.15925368	-0.019799911	
-0.15911856	-0.019835733	
-0.15906156	-0.019870937	
-0.15862032	-0.020071316	
-0.15821391	-0.020190345	
-0.15787506	-0.020284805	
-0.15764599	-0.020409409	
-0.1574222	-0.020530917	
-0.15729764	-0.020554661	
-0.15710341	-0.020645817	
-0.15693134	-0.020737799	
-0.15668961	-0.020840208	
-0.15647003	-0.020911542	
-0.15623146	-0.021005899	
-0.15605517	-0.021053696	
-0.15599395	-0.021070214	
-0.15590106	-0.02109912	
-0.15581872	-0.021134219	
-0.15564243	-0.021233325	
-0.15529197	-0.021400255	
-0.15498901	-0.021497709	
-0.15473988	-0.021590723	
-0.15418991	-0.021825582	
-0.15374022	-0.021983326	
-0.15342776	-0.022059513	
-0.15331587	-0.022068185	
-0.15323142	-0.022119389	
-0.1530393	-0.022259169	
-0.15278384	-0.022353732	
-0.15256216	-0.022448708	
-0.15245343	-0.022484117	
-0.15224442	-0.022599224	
-0.15208186	-0.022661268	
-0.15196152	-0.022716395	
-0.15182429	-0.022771419	
-0.15175251	-0.02279155	
-0.15168706	-0.022843374	
-0.15151816	-0.022973346	
-0.15128382	-0.023078955	
-0.15098402	-0.023243924	
-0.15064728	-0.023450187	
-0.15030104	-0.023607619	
-0.15013003	-0.023679574	
-0.15006248	-0.023665844	
-0.15001603	-0.023687936	
-0.14999597	-0.023700427	
-0.14994847	-0.023736147	
-0.14971835	-0.023848776	
-0.14950089	-0.023939622	
-0.14939744	-0.023962644	
-0.14924016	-0.02403305	
-0.14913776	-0.024025101	
-0.14909554	-0.0240219	
-0.14901848	-0.024071658	
-0.14880947	-0.024116875	
-0.1487683	-0.024111507	
-0.14871552	-0.024136903	
-0.14862579	-0.024196882	
-0.14834289	-0.024288038	
-0.14794809	-0.024379711	
-0.14760818	-0.024419663	
-0.14744773	-0.024473138	
-0.14704132	-0.024572966	
-0.14660852	-0.024664535	
-0.14631084	-0.024725857	
-0.14608916	-0.024756311	
-0.14592871	-0.024757343	
-0.1458527	-0.024773448	
-0.1457102	-0.024798534	
-0.14535551	-0.024833737	
-0.14514439	-0.024852113	
-0.14499238	-0.02484819	
-0.14484037	-0.024857481	
-0.1446377	-0.024845402	
-0.14446458	-0.024826923	
-0.14422179	-0.024842822	
-0.14407189	-0.024852526	
-0.14398638	-0.024814535	
-0.14388927	-0.024793166	
-0.14384493	-0.024789346	
-0.14381749	-0.024822278	
-0.14379215	-0.024822381	
-0.14376576	-0.024823104	
-0.14373937	-0.024801424	
-0.14363487	-0.02477799	
-0.14342058	-0.024789243	
-0.14331079	-0.024766428	
-0.14314823	-0.024721831	
-0.1428611	-0.024705003	
-0.14264787	-0.024665981	
-0.14223407	-0.024600323	
-0.14183927	-0.024491617	
-0.1415152	-0.024410991	
-0.14135264	-0.024389415	
-0.14128297	-0.024398087	
-0.14119641	-0.024376614	
-0.14102434	-0.024339965	
-0.14076572	-0.024254487	
-0.14048493	-0.024124411	
-0.14028964	-0.024109958	
-0.14020097	-0.024107481	
-0.14007007	-0.024069387	
-0.1398315	-0.023965224	
-0.13957816	-0.023804591	
-0.13925092	-0.02366316	
-0.13891312	-0.023531535	
-0.13868828	-0.02345029	
-0.13848243	-0.023371006	
-0.13828926	-0.023277785	
-0.13819214	-0.023266945	
-0.13793035	-0.023105073	
-0.13746377	-0.022852975	
-0.13713653	-0.022729196	
-0.13673012	-0.022556588	
-0.13644933	-0.022414847	
-0.13608831	-0.022192995	
-0.13572518	-0.022009651	
-0.13525859	-0.021718837	
-0.13486696	-0.02159795	
-0.13457983	-0.02149616	
-0.13418926	-0.02119296	
-0.13393274	-0.021132155	
-0.13368679	-0.021051012	
-0.13347566	-0.020978438	
-0.13323182	-0.020895542	
-0.13313892	-0.020796023	
-0.13301647	-0.020710752	
-0.13290669	-0.020702803	
-0.13282752	-0.020704764	
-0.13261956	-0.020633842	
-0.13241055	-0.0204825	
-0.13227544	-0.020433257	
-0.13221632	-0.020421075	
-0.13215721	-0.020365019	
-0.13203898	-0.020308962	
-0.13183419	-0.020136663	
-0.13153545	-0.020002355	
-0.13132855	-0.019872176	
-0.13116177	-0.019824997	
-0.13095698	-0.019692547	
-0.13085353	-0.019651872	
-0.1307353	-0.019584873	
-0.13061074	-0.01952221	
-0.13033628	-0.019391721	
-0.1301146	-0.01926722	
-0.12990981	-0.019174515	
-0.12961319	-0.018993235	
-0.12931973	-0.018849223	
-0.1289756	-0.018690035	
-0.12862302	-0.018510922	
-0.12835701	-0.018358858	
-0.12815328	-0.018263779	
-0.12790521	-0.018098706	
-0.12756003	-0.017942822	
-0.12724968	-0.017775478	
-0.12707339	-0.017645918	
-0.12674721	-0.017477026	
-0.12635135	-0.017197879	
-0.12596711	-0.016942477	
-0.12575177	-0.016818698	
-0.12558287	-0.016699979	
-0.12546886	-0.016651665	
-0.12517751	-0.016362505	
-0.12479326	-0.015969078	
-0.1243763	-0.015698396	
-0.1242454	-0.01564141	
-0.12419473	-0.015599187	
-0.12407228	-0.015393027	
-0.1239435	-0.015352662	
-0.12388227	-0.015224755	
-0.12361309	-0.014787659	
-0.12312434	-0.014384012	
-0.12293222	-0.014253627	
-0.12279077	-0.014205623	
-0.12266937	-0.014094852	
-0.12254903	-0.013883634	
-0.12218802	-0.013431465	
-0.12156943	-0.012870281	
-0.12124852	-0.012686007	
-0.1209994	-0.012558718	
-0.12067955	-0.012273066	
-0.1204262	-0.01207052	
-0.12006307	-0.011752866	
-0.11966616	-0.011480327	
-0.11944448	-0.011162158	
-0.11909719	-0.010637004	
-0.11855883	-0.010120725	
-0.11806902	-0.009586176	
-0.11750216	-0.009166528	
-0.11704614	-0.008773719	
-0.11656478	-0.008501593	
-0.11621748	-0.008307303	
-0.11594408	-0.00816711	
-0.11574035	-0.008001625	
-0.11550389	-0.007865046	
-0.11516187	-0.007688824	
-0.1149592	-0.007594468	
-0.11475863	-0.007472857	
-0.11455596	-0.007343917	
-0.11429206	-0.007209816	
-0.11375053	-0.006968866	
-0.11303272	-0.006671137	
-0.11256614	-0.006441956	
-0.11226951	-0.00629464	
-0.112051	-0.006221755	
-0.11195283	-0.006175609	
-0.1118441	-0.006119656	
-0.11166148	-0.006065044	
-0.11161081	-0.006060709	
-0.11153481	-0.006032732	
-0.11131735	-0.005934659	
-0.11102389	-0.005790647	
-0.1108001	-0.005697013	
-0.1106576	-0.005617316	
-0.11044225	-0.005448733	
-0.11006645	-0.005143881	
-0.10983211	-0.004999456	
-0.10969277	-0.004951658	
-0.10967377	-0.004930289	
-0.10954921	-0.004823131	
-0.10914596	-0.00455245	
-0.10880606	-0.004393262	
-0.10868888	-0.004369415	
-0.10867305	-0.004341541	
-0.10842287	-0.004132284	
-0.1080893	-0.003957196	
-0.10784651	-0.003832799	
-0.10744115	-0.003582351	
-0.10686162	-0.003299695	
-0.1062557	-0.003026949	
-0.10577857	-0.002787547	
-0.10534471	-0.002579529	
-0.10489924	-0.002323094	
-0.10453189	-0.002112496	
-0.10428066	-0.001958055	
-0.10409696	-0.001830973	
-0.10393862	-0.001744359	
-0.10376128	-0.001605611	
-0.10356493	-0.00146005	
-0.10330209	-0.001274021	
-0.10293473	-0.001085928	
-0.10264127	-0.000977013	
-0.10237104	-0.000879869	
-0.10197835	-0.000755988	
-0.10154661	-0.000664728	
-0.10111275	-0.000570372	
-0.10073167	-0.000508431	
-0.10041921	-0.000459394	
-0.10029887	-0.000457123	
-0.10024187	-0.000444219	
-0.10013737	-0.000441019	
-0.09984602	-0.000381555	
-0.09951667	-0.000329835	
-0.09933932	-0.000317034	
-0.09921899	-0.000298142	
-0.09902264	-0.000273262	
-0.09876085	-0.000241053	
-0.09827949	-0.000200895	
-0.09779602	-0.000167653	
-0.09746139	-0.000145871	
-0.09708771	-0.000133379	
-0.09662535	-0.000109326	
-0.09593182	-9.5389e-005	
-0.09555813	-8.4652e-005	
-0.09500077	-7.8871e-005	
-0.09440857	-6.9477e-005	
-0.09402433	-6.0702e-005	
-0.09366437	-5.2753e-005	
-0.09331919	-5.3992e-005	
-0.09301306	-5.2546e-005	
-0.09273122	-4.6043e-005	
-0.09243142	-3.8919e-005	
-0.0921633	-4.0158e-005	
-0.09188884	-3.7268e-005	
-0.09166927	-3.9126e-005	
-0.09143493	-3.2932e-005	
-0.09126603	-3.6648e-005	
-0.09105807	-3.5203e-005	
-0.09071606	-3.7474e-005	
-0.09030437	-3.2416e-005	
-0.08979767	-2.9938e-005	
-0.08922342	-3.0351e-005	
-0.08855944	-2.7357e-005	
-0.08765795	-4.1397e-005	
-0.08666674	-3.3655e-005	
-0.08604181	-2.9628e-005	
-0.08563963	-2.395e-005	
-0.08536939	-2.5912e-005	
-0.08516249	-2.808e-005	
-0.08495137	-2.1576e-005	
-0.08458824	-2.808e-005	
-0.08436023	-2.9319e-005	
-0.08412166	-3.4171e-005	
-0.08393059	-2.8286e-005	
-0.08365402	-2.2918e-005	
-0.08334367	-3.7371e-005	
-0.08296786	-3.6029e-005	
-0.08227221	-2.4054e-005	
-0.08171063	-2.1679e-005	
-0.08137283	-2.9628e-005	
-0.08115326	-3.479e-005	
-0.08090414	-3.6545e-005	
-0.08062546	-3.2209e-005	
-0.08007337	-3.1177e-005	
-0.0795709	-3.0145e-005	
-0.07908427	-3.7887e-005	
-0.07859763	-3.479e-005	
-0.07795688	-3.19e-005	
-0.07733407	-4.1087e-005	
-0.07675031	-3.541e-005	
-0.07612328	-4.2946e-005	
-0.0755427	-4.7694e-005	
-0.07521757	-4.883e-005	
-0.07498428	-5.234e-005	
-0.07474782	-4.6146e-005	
-0.07438258	-4.5217e-005	
-0.07391178	-5.0895e-005	
-0.07348215	-5.234e-005	
-0.07290367	-5.0791e-005	
-0.07224075	-5.5231e-005	
-0.07153454	-5.8018e-005	
-0.07076078	-5.9257e-005	
-0.07017386	-6.0392e-005	
-0.06978118	-6.3283e-005	
-0.06948349	-5.8224e-005	
-0.06892191	-6.2973e-005	
-0.068544	-6.6793e-005	
-0.06822943	-6.8032e-005	
-0.06814709	-6.669e-005	
-0.06799192	-6.6896e-005	
-0.06795603	-5.9979e-005	
-0.06794547	-6.7825e-005	
-0.06793069	-7.3193e-005	
-0.06792225	-7.5258e-005	
-0.0679138	-5.6882e-005	
-0.06790747	-0.000570268	
-0.06789691	-0.002026086	
-0.06789058	-0.002019273	
-0.06789691	0.003153409	
-0.06788847	0.00104329	
-0.06788424	8.5478e-005	
-0.06787791	-2.9422e-005	
-0.06788002	-4.8624e-005	
-0.06787263	-8.9298e-005	
-0.06787369	-0.000103957	
-0.06786947	-0.000116655	
-0.06787052	-9.3324e-005	
-0.06786735	-1.6414e-005	
-0.06786735	-8.6201e-005	
-0.06786524	-0.000116552	
-0.06786102	-0.000318892	
-0.06785469	-0.000667103	
-0.06785469	-0.000166311	
-0.06785469	-1.9305e-005	
-0.06785469	-5.265e-006	
-0.06785469	0.000196249	
-0.06785258	1.6311e-005	
-0.06785258	-2.2918e-005	
-0.06785047	-3.3964e-005	
-0.06785258	-5.2546e-005	
-0.06784624	-5.905e-005	
-0.06784624	-6.927e-005	
-0.06784624	-4.7178e-005	
-0.06784413	-6.5864e-005	
-0.06784835	-6.1425e-005	
-0.06784413	-5.7398e-005	
-0.06784413	-8.1349e-005	
-0.06784624	-6.8032e-005	
-0.06784624	-7.4948e-005	
-0.06784308	-7.2574e-005	
-0.06784413	-6.8032e-005	
-0.06784202	-8.1659e-005	
-0.06784202	-7.8975e-005	
-0.06783885	-5.4508e-005	
-0.0678378	-5.7398e-005	
-0.06784096	-6.9683e-005	
-0.06783569	-5.585e-005	
-0.0678378	-6.256e-005	
-0.0678378	-5.8947e-005	
-0.0678378	-6.3076e-005	
-0.0678378	-6.6999e-005	
-0.06783569	-7.0303e-005	
-0.0678378	-7.7116e-005	
-0.06783569	-6.5761e-005	
-0.06783358	-5.8844e-005	
-0.06783569	-5.6469e-005	
-0.06783569	-5.8534e-005	
-0.06783569	-7.4948e-005	
-0.06783569	-6.9167e-005	
-0.06783358	-5.8947e-005	
-0.06783358	-6.9374e-005	
-0.06783358	-6.1528e-005	
-0.06783569	-6.5967e-005	
-0.06783358	-6.4212e-005	
-0.06783358	-5.8121e-005	
-0.06783146	-6.2457e-005	
-0.06783146	-5.9773e-005	
-0.06783146	-6.1838e-005	
-0.06783146	-6.4418e-005	
-0.06783146	-6.0805e-005	
-0.06782935	-7.02e-005	
-0.06782724	-6.1838e-005	
-0.06782935	-7.278e-005	
-0.06782724	-7.0096e-005	
-0.06782407	-7.1955e-005	
-0.06782302	-7.0819e-005	
-0.06782302	-6.6586e-005	
-0.06782513	-6.8548e-005	
-0.06782407	-7.0716e-005	
-0.06782513	-6.7619e-005	
-0.06782724	-6.9064e-005	
-0.06782302	-6.669e-005	
-0.06782302	-6.1425e-005	
-0.06782302	-5.2546e-005	
-0.06782302	-5.9566e-005	
-0.06782302	-6.2767e-005	
-0.06782091	-5.6366e-005	
-0.06782302	-6.1321e-005	
-0.06782091	-6.4522e-005	
-0.0678188	-6.9167e-005	
-0.06782302	-6.8651e-005	
-0.06782091	-7.3193e-005	
-0.0678188	-6.8858e-005	
-0.0678188	-6.989e-005	
-0.0678188	-6.989e-005	
-0.0678188	-7.34e-005	
-0.0678188	-6.989e-005	
-0.0678188	-7.1542e-005	
-0.06782091	-6.2767e-005	
-0.06781669	-6.1838e-005	
-0.06781985	-6.4935e-005	
-0.0678188	-6.318e-005	
-0.06782091	-6.1012e-005	
-0.06781669	-7.4123e-005	
-0.06781985	-6.607e-005	
-0.06781774	-7.0819e-005	
-0.06781457	-6.4728e-005	
-0.0678188	-6.6277e-005	
-0.06781669	-6.5761e-005	
-0.06781457	-6.9374e-005	
-0.06781669	-7.4948e-005	
-0.06781457	-6.927e-005	
-0.06781457	-6.958e-005	
-0.06781457	-6.5038e-005	
-0.06781669	-4.8417e-005	
-0.06781457	-4.1191e-005	
-0.06781457	-5.4198e-005	
-0.06781669	-8.0626e-005	
-0.06781669	-7.0716e-005	
-0.06781457	-8.3723e-005	
-0.06781352	-8.6717e-005	
-0.06781246	-8.7956e-005	
-0.06781246	-2.5189e-005	
-0.06781035	-2.1886e-005	
-0.06781035	-6.927e-005	
-0.06781035	-7.0922e-005	
-0.06781457	-6.4212e-005	
-0.06781457	-4.6972e-005	
-0.06781246	-1.755e-005	
-0.06781246	-3.2003e-005	
-0.06781457	-9.9105e-005	
-0.06781669	-0.000123675	
-0.06781457	-4.8624e-005	
-0.0678188	-1.2595e-005	
-0.06782091	-2.06e-007	
-0.06782302	-2.684e-006	
-0.06783146	-4.4081e-005	
-0.0678378	-0.000138438	
-0.0678568	-0.000102719	
-0.06786735	-2.168e-006	
-0.06788424	1.6724e-005	
-0.06788847	1.5279e-005	
-0.06788847	-4.4391e-005	
-0.06788847	-7.0922e-005	
-0.06789058	-8.042e-005	
-0.06789269	-5.8637e-005	
-0.06789058	-9.0021e-005	
-0.06789163	-9.7041e-005	
-0.06789269	-7.2574e-005	
-0.0678948	-3.097e-005	
-0.0678948	-4.1294e-005	
-0.0678948	-3.83e-005	
-0.0678948	-4.5527e-005	
-0.06789691	-4.5939e-005	
-0.06789691	-4.0984e-005	
-0.06789691	-2.6325e-005	
-0.06789797	-3.7577e-005	
-0.06790113	-4.1707e-005	
-0.06789902	-4.4701e-005	
-0.06790113	-4.1604e-005	
-0.06790113	-4.2946e-005	
-0.06790325	-4.6043e-005	
-0.06790536	-3.8816e-005	
-0.06790219	-3.4377e-005	
-0.06790536	-4.1191e-005	
-0.06790747	-4.1604e-005	
-0.06790536	-3.3035e-005	
-0.06790536	-3.1487e-005	
-0.06790958	-4.0778e-005	
-0.06790747	-3.19e-005	
-0.06790747	-3.3964e-005	
-0.06790747	-3.861e-005	
-0.06790852	-4.3875e-005	
-0.06790958	-0.000127701	
-0.06790958	-0.000198211	
-0.06790958	-0.000302374	
-0.06791169	-0.000284102	
-0.06790958	-0.000760943	
-0.06791169	0.000300723	
-0.0679138	0.000567481	
-0.0679138	0.000108913	
-0.0679138	-3.1074e-005	
-0.06791169	-7.0303e-005	
-0.06791169	-0.000119339	
-0.0679138	-9.3737e-005	
-0.06791169	-9.5492e-005	
-0.0679138	-3.9126e-005	
-0.06791486	-0.000103957	
-0.06791591	-6.6173e-005	
-0.06791591	-1.9408e-005	
-0.06791802	5.4301e-005	
-0.06791591	-3.9332e-005	
-0.06791591	-2.395e-005	
-0.06791591	-3.304e-006	
-0.06792225	-7.433e-006	
-0.06792858	-1.6311e-005	
-0.06793703	-3.923e-006	
-0.06801408	-5.3166e-005	
-0.06831071	-2.4363e-005	
-0.06858411	-1.3317e-005	
-0.06866328	-4.1604e-005	
-0.06869812	-1.858e-006	
-0.06875301	-2.2712e-005	
-0.06881846	-1.0117e-005	
-0.06887969	-0.000101789	
-0.06895147	-8.6407e-005	
-0.06899369	-0.000166724	
-0.06901058	-0.000107158	
-0.06905492	-7.0819e-005	
-0.06909292	-2.2299e-005	
-0.06909925	0.000101583	
-0.06922381	1.0323e-005	
-0.06927237	-5.265e-006	
-0.06938216	3.1e-007	
-0.06938004	-1.5692e-005	
-0.06938638	-1.3111e-005	
-0.06971995	-1.7343e-005	
-0.07000497	-2.9319e-005	
-0.07000497	-2.3744e-005	
-0.07004086	-2.0544e-005	
-0.07028259	-2.426e-005	
-0.07053594	-2.5499e-005	
-0.07085051	-3.2209e-005	
-0.07097507	-3.1383e-005	
-0.0711313	-3.3551e-005	
-0.0715261	-3.7577e-005	
-0.07164855	-3.51e-005	
-0.07166122	-2.5602e-005	
-0.07169077	-2.3641e-005	
-0.071733	-2.7254e-005	
-0.07173511	-3.5616e-005	
-0.07174144	-3.0248e-005	
-0.07176995	-3.0351e-005	
-0.07237587	-3.5513e-005	
-0.07269044	-2.7667e-005	
-0.07292901	-3.861e-005	
-0.07305779	-2.7873e-005	
-0.07307046	-2.8906e-005	
-0.07319713	-3.1177e-005	
-0.07356448	-3.6132e-005	
-0.07411023	-2.7151e-005	
-0.07459792	-3.2519e-005	
-0.07497161	-5.234e-005	
-0.07524079	-4.2842e-005	
-0.07542341	-1.9202e-005	
-0.07552475	-3.0557e-005	
-0.07552581	-2.8906e-005	
-0.07552792	-2.777e-005	
-0.0755427	-1.6311e-005	
-0.07567993	-2.2092e-005	
-0.07612539	-2.746e-005	
-0.07671653	-1.9511e-005	
-0.07719261	-2.777e-005	
-0.07742696	-3.8507e-005	
-0.07767397	-3.3861e-005	
-0.07790832	-3.0867e-005	
-0.07812261	-3.8919e-005	
-0.07842134	-3.448e-005	
-0.07857019	-3.7681e-005	
-0.07871058	-3.5616e-005	
-0.07885731	-3.6029e-005	
-0.07893437	-4.3255e-005	
-0.07915922	-4.4081e-005	
-0.07936823	-4.4184e-005	
-0.07938723	-4.4907e-005	
-0.07940623	-4.5114e-005	
-0.07946745	-4.1604e-005	
-0.07950123	-4.212e-005	
-0.07970602	-3.7784e-005	
-0.07975247	-4.914e-005	
-0.07975669	-4.4391e-005	
-0.0797588	-5.1824e-005	
-0.07980103	-5.234e-005	
-0.07981369	-5.4405e-005	
-0.0798327	-4.1294e-005	
-0.07983164	-3.9539e-005	
-0.07985381	-4.4081e-005	
-0.08009026	-5.3063e-005	
-0.08043228	-5.8637e-005	
-0.08059062	-5.2959e-005	
-0.08078697	-5.8328e-005	
-0.08113004	-6.927e-005	
-0.08142561	-7.309e-005	
-0.08176763	-7.5361e-005	
-0.08185313	-8.042e-005	
-0.0818563	-8.362e-005	
-0.08199353	-8.4136e-005	
-0.08233344	-9.1672e-005	
-0.08237355	-8.9814e-005	
-0.08236827	-8.4652e-005	
-0.08239149	-9.6008e-005	
-0.08257728	-9.2395e-005	
-0.08277151	-0.000101376	
-0.08302169	-0.00011139	
-0.08311775	-0.00011201	
-0.08315998	-0.000116036	
-0.08341546	-0.000131315	
-0.08377436	-0.00013658	
-0.084204	-0.000162595	
-0.0844869	-0.000178906	
-0.08457346	-0.000180557	
-0.08455657	-0.000175602	
-0.08457979	-0.000185822	
-0.08483525	-0.000195527	
-0.08517727	-0.00021607	
-0.08525116	-0.000233104	
-0.08544117	-0.000233207	
-0.08544751	-0.000241569	
-0.08546017	-0.00025468	
-0.08550662	-0.000252409	
-0.08550662	-0.000249725	
-0.08557312	-0.000252512	
-0.0858613	-0.000294012	
-0.08624027	-0.000341191	
-0.0865654	-0.000388266	
-0.08664985	-0.000386304	
-0.08665618	-0.000397557	
-0.08668785	-0.00040148	
-0.08670263	-0.000410151	
-0.08684619	-0.000440193	
-0.08731277	-0.000530626	
-0.08754606	-0.000590915	
-0.0876379	-0.000602684	
-0.08766323	-0.000617963	
-0.08771073	-0.000631487	
-0.08795141	-0.000734928	
-0.08859217	-0.000907743	
-0.08944405	-0.001110291	
-0.09010802	-0.001303237	
-0.09034448	-0.001382624	
-0.09041521	-0.001433725	
-0.09045849	-0.001445597	
-0.09045849	-0.001497731	
-0.0904796	-0.001496492	
-0.09061049	-0.001489885	
-0.0906485	-0.001540573	
-0.09071817	-0.001612838	
-0.09096412	-0.001777497	
-0.09129242	-0.001982108	
-0.09153626	-0.002121684	
-0.09161438	-0.002166797	
-0.09174528	-0.002251243	
-0.09189939	-0.002314732	
-0.09192051	-0.002324953	
-0.09194795	-0.002376467	
-0.09220974	-0.002519034	
-0.09227097	-0.002535964	
-0.0922773	-0.00253741	
-0.09227308	-0.002544326	
-0.09229419	-0.002587582	
-0.09246098	-0.002682454	
-0.09253276	-0.002706818	
-0.09257076	-0.002711876	
-0.09258132	-0.002725606	
-0.09257499	-0.002734072	
-0.09260454	-0.002750073	
-0.09263199	-0.002784966	
-0.09304895	-0.003084863	
-0.09366543	-0.003416969	
-0.09386388	-0.003533934	
-0.09414044	-0.003717692	
-0.09477592	-0.004037926	
-0.09499021	-0.004124127	
-0.09514644	-0.004224989	
-0.09536812	-0.004380048	
-0.09556235	-0.004531493	
-0.09584314	-0.004703689	
-0.09589592	-0.004718348	
-0.09589804	-0.004732078	
-0.0959107	-0.004794329	
-0.0960701	-0.004886207	
-0.09634878	-0.005040543	
-0.09679214	-0.00521852	
-0.09695681	-0.005282938	
-0.09729039	-0.005401658	
-0.09748462	-0.005515526	
-0.09790897	-0.005705581	
-0.09817604	-0.005819036	
-0.09817921	-0.005822133	
-0.09817604	-0.005811707	
-0.09817288	-0.005820688	
-0.09821404	-0.005837928	
-0.09828266	-0.005847735	
-0.09837239	-0.005929394	
-0.09893186	-0.006143193	
-0.099561	-0.006304757	
-0.09963067	-0.006314668	
-0.0997109	-0.006340167	
-0.09980379	-0.00634027	
-0.09980485	-0.006342851	
-0.09984391	-0.00638972	
-0.10042133	-0.006565632	
-0.1007359	-0.006671447	
-0.10108847	-0.006778192	
-0.10152338	-0.006931702	
-0.10203958	-0.00718504	
-0.1024576	-0.007360744	
-0.10263283	-0.007449423	
-0.10286506	-0.007617076	
-0.10322186	-0.007811364	
-0.10325775	-0.007844192	
-0.10332742	-0.007907372	
-0.10341292	-0.0079721	
-0.10346043	-0.008008645	
-0.10367366	-0.008152761	
-0.10390589	-0.008288101	
-0.10418141	-0.008505103	
-0.10453822	-0.008712192	
-0.10475357	-0.008855998	
-0.10512831	-0.009070416	
-0.10534999	-0.009222377	
-0.10552311	-0.009347188	
-0.10580179	-0.009588343	
-0.10610792	-0.009882562	
-0.10620926	-0.009968454	
-0.10635282	-0.010133113	
-0.10669484	-0.010493094	
-0.10712236	-0.010934939	
-0.10750871	-0.011252386	
-0.10769872	-0.011342406	
-0.10794996	-0.011556824	
-0.10834581	-0.011875922	
-0.1085411	-0.012050182	
-0.10879233	-0.01227606	
-0.10902351	-0.012566668	
-0.10969699	-0.013074066	
-0.11016779	-0.013610578	
-0.1104602	-0.013949601	
-0.11068399	-0.014192821	
-0.11086555	-0.014414157	
-0.110988	-0.014551975	
-0.11100489	-0.014603696	
-0.11104078	-0.014662435	
-0.11112101	-0.01469227	
-0.11114634	-0.014767941	
-0.11121179	-0.014853626	
-0.11138913	-0.015106138	
-0.11171637	-0.015458065	
-0.11222623	-0.015847467	
-0.11245002	-0.016064983	
-0.11288916	-0.016408961	
-0.11330718	-0.016652285	
-0.11358375	-0.01682386	
-0.1137252	-0.016901905	
-0.1139321	-0.017037453	
-0.11420233	-0.01724578	
-0.11440818	-0.017364707	
-0.11469529	-0.017465877	
-0.11490008	-0.017565498	
-0.11516821	-0.017732841	
-0.11544478	-0.017877061	
-0.11564746	-0.017988761	
-0.11584485	-0.018123792	
-0.1160222	-0.018177784	
-0.11604331	-0.018170867	
-0.11606864	-0.018189553	
-0.11611087	-0.018219388	
-0.11611298	-0.018294955	
-0.11615098	-0.018374343	
-0.11633255	-0.018453008	
-0.11671679	-0.018642443	
-0.11743883	-0.018909202	
-0.1180458	-0.019105761	
-0.11825481	-0.019237901	
-0.1186095	-0.019386972	
-0.118733	-0.019484013	
-0.11883118	-0.019548947	
-0.11887973	-0.019574137	
-0.11891562	-0.019604384	
-0.1189494	-0.019613056	
-0.1191373	-0.019665396	
-0.11955216	-0.019820971	
-0.11994696	-0.020087627	
-0.12066688	-0.020410235	
-0.12126752	-0.020672245	
-0.12151031	-0.020770421	
-0.12167499	-0.020874379	
-0.12204445	-0.02104616	
-0.12229991	-0.021167977	
-0.12263032	-0.021259546	
-0.12267571	-0.02125552	
-0.12267571	-0.021133187	
-0.1227116	-0.021237867	
-0.12301034	-0.021418734	
-0.12350436	-0.021734736	
-0.12394138	-0.021981055	
-0.12414406	-0.022020697	
-0.12449663	-0.022202286	
-0.12466659	-0.022286836	
-0.12476159	-0.02229623	
-0.12500438	-0.022395748	
-0.12537597	-0.022565982	
-0.12585944	-0.022838315	
-0.12640413	-0.023092994	
-0.1266712	-0.02320614	
-0.12680632	-0.023298638	
-0.12683165	-0.02326519	
-0.12682954	-0.023310716	
-0.12695199	-0.02339124	
-0.12713567	-0.023520799	
-0.12735524	-0.023608961	
-0.12754208	-0.023755658	
-0.12765503	-0.023824412	
-0.12782393	-0.023892031	
-0.12810155	-0.023903284	
-0.12839185	-0.023980916	
-0.12883204	-0.024086834	
-0.1290516	-0.024131535	
-0.12925006	-0.024225272	
-0.1298412	-0.024341411	
-0.13052418	-0.024519387	
-0.13100343	-0.024540654	
-0.13148795	-0.024600633	
-0.13172124	-0.024597536	
-0.13185002	-0.024657928	
-0.13184475	-0.02471223	
-0.13191125	-0.024717391	
-0.13203687	-0.024712643	
-0.13216987	-0.024733599	
-0.13244644	-0.024741342	
-0.13273357	-0.02480638	
-0.13310303	-0.024788623	
-0.13355378	-0.024770661	
-0.13413648	-0.024707791	
-0.13466428	-0.024658238	
-0.13509708	-0.024629229	
-0.13522481	-0.02461457	
-0.13534937	-0.024616221	
-0.13546971	-0.024572553	
-0.1356555	-0.024517942	
-0.13589408	-0.024441961	
-0.13617698	-0.024405519	
-0.13644088	-0.024312195	
-0.13673645	-0.024235595	
-0.13711647	-0.024128231	
-0.13766011	-0.024006518	
-0.13801902	-0.02388243	
-0.13828926	-0.023796642	
-0.13851938	-0.023695782	
-0.13857955	-0.023695679	
-0.13865555	-0.023685768	
-0.13873789	-0.023646023	
-0.13897012	-0.023560544	
-0.13923192	-0.023486732	
-0.1394367	-0.023444199	
-0.1395866	-0.023406725	
-0.13971539	-0.023301012	
-0.13993917	-0.023248156	
-0.14006585	-0.023228851	
-0.14037831	-0.023108273	
-0.14077205	-0.022882603	
-0.14140119	-0.022643925	
-0.14186566	-0.022503319	
-0.14228896	-0.022279919	
-0.14277665	-0.022063333	
-0.14302789	-0.021951528	
-0.14303211	-0.021960511	
-0.14322423	-0.0218868	
-0.14350714	-0.021779849	
-0.14400855	-0.021550771	
-0.14444769	-0.02134585	
-0.14454058	-0.021264398	
-0.14455114	-0.0212453	
-0.1445448	-0.021256656	
-0.14457225	-0.021212678	
-0.14474748	-0.021143407	
-0.14484671	-0.021093338	
-0.14485304	-0.021068356	
-0.1449776	-0.021052974	
-0.14512855	-0.020989897	
-0.14547374	-0.020841343	
-0.1456743	-0.020772796	
-0.14575559	-0.020700428	
-0.14604799	-0.0206006	
-0.14644807	-0.020434392	
-0.14678586	-0.020287593	
-0.14717433	-0.020097331	
-0.14793542	-0.019786284	
-0.14849278	-0.019537695	
-0.14874719	-0.019396573	
-0.14902798	-0.01925607	
-0.14945444	-0.019048362	
-0.14970146	-0.018941927	
-0.14983869	-0.018841273	
-0.14987458	-0.018820007	
-0.14987458	-0.018814432	
-0.1499548	-0.018752801	
-0.15017859	-0.018630778	
-0.15025882	-0.018584426	
-0.15053539	-0.018393854	
-0.15094497	-0.018142994	
-0.15136404	-0.017953455	
-0.15201641	-0.017602456	
-0.1523806	-0.017334665	
-0.15270678	-0.017120969	
-0.15308785	-0.016840687	
-0.15344676	-0.01665084	
-0.15376556	-0.016440757	
-0.15443059	-0.016063331	
-0.15492567	-0.015672278	
-0.15547881	-0.015213812	
-0.15588839	-0.014859304	
-0.15624835	-0.014572106	
-0.15665899	-0.014301321	
-0.15731875	-0.013817254	
-0.15768188	-0.0135666	
-0.1577051	-0.013536867	
-0.15782755	-0.01343291	
-0.15834375	-0.013019558	
-0.15900878	-0.012468696	
-0.15936769	-0.012183871	
-0.15970654	-0.011891304	
-0.16021746	-0.011503658	
-0.16094794	-0.01098573	
-0.1618906	-0.010303141	
-0.16250918	-0.009805653	
-0.16328189	-0.009201731	
-0.16399443	-0.008593575	
-0.16469113	-0.00807007	
-0.16490648	-0.007923786	
-0.16496664	-0.007845018	
-0.16515877	-0.007681598	
-0.16517354	-0.007646601	
-0.16546384	-0.007409884	
-0.16627982	-0.006904035	
-0.1670177	-0.006477159	
-0.16751382	-0.006223819	
-0.16773339	-0.006059676	
-0.1679614	-0.005918348	
-0.16821897	-0.005735416	
-0.16842481	-0.005631665	
-0.16844698	-0.005618038	
-0.16863594	-0.005494673	
-0.16871616	-0.005475471	
-0.16870561	-0.00546298	
-0.16886395	-0.005328155	
-0.16991745	-0.004829532	
-0.17087066	-0.004422684	
-0.17122957	-0.004273303	
-0.1712359	-0.004268038	
-0.17123379	-0.004240165	
-0.17170248	-0.004045978	
-0.17227357	-0.003848181	
-0.17267681	-0.003697355	
-0.17320251	-0.003476639	
-0.17398893	-0.003252516	
-0.17454841	-0.003073507	
-0.1748862	-0.002982661	
-0.17516277	-0.002916384	
-0.17529156	-0.002901931	
-0.17560718	-0.002825022	
-0.17605054	-0.002735001	
-0.17645801	-0.002649626	
-0.17680214	-0.002573955	
-0.17695203	-0.00254763	
-0.17739856	-0.002455235	
-0.17797915	-0.002339302	
-0.17849218	-0.002255166	
-0.17881625	-0.00221955	
-0.17881942	-0.002213149	
-0.17890598	-0.002192503	
-0.17937783	-0.002119929	
-0.17972302	-0.002065214	
-0.18013576	-0.001990367	
-0.18047567	-0.001932143	
-0.18071635	-0.001897146	
-0.18094014	-0.001857607	
-0.18122304	-0.001834173	
-0.18167484	-0.001703581	
-0.18227337	-0.001648247	
-0.18239371	-0.001595804	
-0.18251405	-0.001567311	
-0.18298169	-0.001491847	
-0.18365517	-0.001391812	
-0.18430964	-0.001321922	
-0.18438987	-0.001346905	
-0.18438248	-0.001354957	
-0.18466116	-0.001321716	
-0.18511085	-0.001203409	
-0.18559643	-0.001085102	
-0.1859564	-0.00101418	
-0.18625408	-0.000950069	
-0.18674177	-0.000867378	
-0.18730758	-0.000768686	
-0.18776888	-0.000716449	
-0.18804123	-0.000671335	
-0.18852257	-0.00060031	
-0.18898282	-0.000483964	
-0.18955391	-0.000501308	
-0.19016616	-0.000465485	
-0.19036039	-0.000442051	
-0.19039839	-0.000434618	
-0.19056518	-0.000410461	
-0.1909452	-0.000368341	
-0.19129777	-0.00034501	
-0.19163662	-0.000302787	
-0.19200398	-0.000263145	
-0.19277457	-0.000218341	
-0.19314509	-0.000205953	
-0.19351667	-0.000182209	
-0.1937869	-0.000189539	
-0.19438015	-0.000167343	
-0.19469473	-0.000164556	
-0.19520248	-0.000152271	
-0.19573239	-0.000142257	
-0.19598574	-0.000135134	
-0.19612719	-0.000134308	
-0.19628975	-0.000128114	
-0.19644915	-0.000131211	
-0.19647132	-0.000135547	
-0.19663599	-0.000113352	
-0.19695162	-0.000122023	
-0.19743509	-0.000103028	
-0.19783833	-8.5685e-005	
-0.19829225	-8.1349e-005	
-0.19837986	-8.7956e-005	
-0.19838408	-8.0213e-005	
-0.19856565	-7.1851e-005	
-0.19860789	-7.4329e-005	
-0.19886335	-7.8252e-005	
-0.19902169	-7.5671e-005	
-0.19936371	-7.1645e-005	
-0.19972684	-6.4625e-005	
-0.20002874	-6.0289e-005	
-0.20021031	-6.0599e-005	
-0.20056605	-5.7192e-005	
-0.20072861	-4.212e-005	
-0.20108435	-5.3785e-005	
-0.20122053	-4.0571e-005	
-0.20131764	-4.2223e-005	
-0.20157099	-4.0158e-005	
-0.2022962	-2.839e-005	
-0.20281133	-3.3138e-005	
-0.20309424	-3.5616e-005	
-0.20345314	-2.7977e-005	
-0.20361887	-2.6635e-005	
-0.20412557	-3.128e-005	
-0.20483494	-1.5898e-005	
-0.20504817	-1.4143e-005	
-0.2054303	-2.6738e-005	
-0.20664953	-2.5189e-005	
-0.20721006	-2.9525e-005	
-0.20769353	-1.2801e-005	
-0.20828467	-1.3008e-005	
-0.20895604	-1.7963e-005	
-0.20972135	-6.194e-006	
-0.21005703	-1.5279e-005	
-0.2102956	-1.5382e-005	
-0.21058272	-1.3833e-005	
-0.21080546	-1.1769e-005	
-0.21097436	-5.162e-006	
-0.21095535	-1.404e-005	
-0.21094902	-2.06e-007	
-0.21097647	1.342e-006	
-0.21137127	1.239e-006	
-0.2113776	6.813e-006	
-0.21140716	-2.271e-006	
-0.21164572	1.136e-006	
-0.21177873	7.743e-006	
-0.21197507	-2.891e-006	
-0.21211864	-7.23e-007	
-0.21233609	-1.0323e-005	
-0.21239521	-2.994e-006	
-0.21241104	-3.1383e-005	
-0.21315419	-2.8906e-005	
-0.21416124	-5.9979e-005	
-0.21509335	-7.4019e-005	
-0.21615635	-5.6676e-005	
-0.21655959	-1.7756e-005	
-0.21655114	4.129e-006	
-0.2165807	4.2739e-005	
-0.21660604	4.9346e-005	
-0.21739985	-7.226e-006	
-0.21898327	-0.000330454	
-0.22046535	-0.001483278	
-0.22175002	0.001621714	
-0.22333872	0.000508224	
-0.22477435	0.000166208	
-0.22671456	4.7385e-005	
-0.22934831	2.6944e-005	
-0.23219422	1.435e-005	
-0.23493564	-2.1266e-005	
-0.23834104	-3.5719e-005	
-0.24103706	-1.6621e-005	
-0.24279465	-6.401e-006	
-0.24482459	-2.4673e-005	
-0.24688197	-4.2636e-005	
-0.24845061	-9.291e-006	
-0.24951888	-1.755e-006	
-0.25018603	-7.639e-006	
-0.25076239	-2.6325e-005	
-0.25095451	-1.652e-006	
-0.2509524	3.2e-006	
-0.25114769	-2.6015e-005	
-0.25150237	-3.2106e-005	
-0.25222863	-4.212e-005	
-0.25306996	-1.1975e-005	
-0.2537181	-1.5279e-005	
-0.2544338	-2.684e-006	
-0.25568259	1.693e-005	
-0.2574254	-3.2e-006	
-0.25912388	-2.7977e-005	
-0.26102292	1.7137e-005	
-0.26194235	7.949e-006	
-0.26321225	5.988e-006	
-0.26567076	9.911e-006	
-0.26870564	-1.5382e-005	
-0.27114199	5.16e-007	
-0.2755935	1.8892e-005	
-0.27842148	-7.23e-007	
-0.28115656	2.994e-006	
-0.28360768	7.123e-006	
-0.28595008	-3.923e-006	
-0.28856377	-6.401e-006	
-0.29197972	-1.6105e-005	
-0.29451424	-8.26e-007	
-0.29730528	-4.955e-006	
-0.29997069	7.743e-006	
-0.30151716	2.1783e-005	
-0.3033212	7.639e-006	
-0.30680153	3.407e-006	
-0.30980051	-6.401e-006	
-0.31134909	-2.2815e-005	
-0.31252821	-1.7756e-005	
-0.31405039	-1.3627e-005	
-0.31646879	-2.0647e-005	
-0.31860535	-2.457e-005	
-0.32216487	-2.5809e-005	
-0.3265562	-2.0028e-005	
-0.33197571	-2.2299e-005	
-0.3376707	-1.0117e-005	
-0.34225311	-8.878e-006	
-0.34809166	-5.575e-006	
-0.35381624	-1.7963e-005	
-0.36128362	-9.291e-006	
-0.36714541	1.724e-005	
-0.37197905	2.2195e-005	
-0.37712935	-3.716e-006	
-0.38277897	-2.1989e-005	
-0.38751655	-3.8816e-005	
-0.39302578	-3.8507e-005	
-0.39784883	-4.3359e-005	
-0.40247557	-4.1604e-005	
-0.40676979	-3.1796e-005	
-0.41282686	-5.9566e-005	
-0.41754755	-7.0613e-005	
-0.42205184	-8.8266e-005	
-0.42659941	-0.00206573	
-0.43443728	-0.037184005	
-0.43754711	-0.000179938	
-0.43947782	-0.000157433	
-0.44170408	-0.000170337	
-0.44393248	-0.000168789	
-0.44604264	-0.000155368	
-0.44710775	-0.000101376	
-0.44730199	-9.8692e-005	
-0.44730937	-0.000111906	
-0.44729565	-0.000120991	
-0.44728826	-0.000119959	
-0.44729565	-9.9518e-005	
-0.44729354	-6.6999e-005	
-0.44729143	-0.000102925	
-0.44728721	-0.000103338	
-0.44726609	-0.000129353	
-0.44725343	-0.000132657	
-0.44724815	-0.000140296	
-0.44724498	-0.000160633	
-0.44723865	-0.000172299	
-0.44724076	-0.000154129	
-0.44723865	-0.000130798	
-0.44724076	-0.000105093	
-0.44724076	-0.000113558	
-0.4472397	-0.000134515	
-0.44723865	-0.000135547	
-0.44723654	-0.000140399	
-0.44723654	-0.000138231	
-0.44723654	-0.000128217	
-0.44723443	-0.000126669	
-0.44723654	-0.000121404	
-0.44723654	-0.000133689	
-0.44721015	-0.000159704	
-0.44718376	-0.000169924	
-0.4471352	-0.00016435	
-0.4470972	-0.000161356	
-0.44699375	-0.000160943	
-0.44686285	-0.000164763	
-0.44682802	-0.000163937	
-0.44681218	-0.00017106	
-0.44680163	-0.000174673	
-0.4467974	-0.000179215	
-0.44679529	-0.000176531	
-0.44679529	-0.000174054	
-0.44678685	-0.000167756	
-0.44678896	-0.00013245	
-0.44678263	-0.000166931	
-0.4467784	-0.000138644	
-0.44677629	-0.00016435	
-0.44677418	-0.000169408	
-0.44677207	-0.000169202	
-0.44677207	-0.000168066	
-0.44676996	-0.000166001	
-0.44676785	-0.000116449	
-0.44676574	-0.000179112	
-0.4467594	-0.00016053	
-0.44672984	-0.000161975	
-0.4466454	-0.000154955	
-0.44655461	-0.000154749	
-0.44652506	-0.000140709	
-0.44651028	-0.000161459	
-0.44653139	-0.00016053	
-0.44651872	-0.000165898	
-0.44650606	-0.000164453	
-0.44650183	-0.000157433	
-0.44650394	-0.000173744	
-0.44653561	-0.00017808	
-0.44634771	-0.000175499	
-0.4461102	-8.424e-005	
-0.44605953	-0.000179112	
-0.44604792	-0.000174467	
-0.44603314	-0.00017075	
-0.44602364	-0.000187474	
-0.44601731	-0.000184584	
