#INFO
#COMMENT: test, 540nm - grün- 1mA x-axe, 10 oder100kohm

#DATA:
-0.0522876	1.136e-006	
-0.05228337	8.465e-006	
-0.05228548	6.813e-006	
-0.05228548	6.091e-006	
-0.05228548	-1.239e-006	
-0.05228337	5.471e-006	
-0.05228337	8.362e-006	
-0.05228126	7.743e-006	
-0.05228337	5.678e-006	
-0.05228548	1.652e-006	
-0.05228337	7.226e-006	
-0.05228337	3.304e-006	
-0.05228126	3.82e-006	
-0.05228548	1.6518e-005	
-0.05228337	6.607e-006	
-0.05228337	4.439e-006	
-0.05228126	-4.8211e-005	
-0.05225382	-0.000853854	
-0.05226226	-0.000291741	
-0.05229604	0.000224948	
-0.05228548	6.6999e-005	
-0.05228548	8.362e-005	
-0.05228971	6.256e-005	
-0.05228548	1.3833e-005	
-0.05228337	9.085e-006	
-0.05228337	2.2712e-005	
-0.05228126	1.7653e-005	
-0.05228548	2.0853e-005	
-0.05228126	1.8995e-005	
-0.05228337	1.6208e-005	
-0.05248183	1.4659e-005	
-0.05277001	9.394e-006	
-0.05306136	1.084e-005	
-0.05331893	1.1769e-005	
-0.05338015	7.536e-006	
-0.05336748	4.336e-006	
-0.05335482	-2.684e-006	
-0.05335059	-5.5024e-005	
-0.05334848	-6.1321e-005	
-0.05334637	-2.2092e-005	
-0.05334637	7.1542e-005	
-0.05334637	5.7605e-005	
-0.05334215	2.777e-005	
-0.05334215	1.724e-005	
-0.05334004	1.3214e-005	
-0.05334004	5.162e-006	
-0.05333793	8.568e-006	
-0.05333582	7.123e-006	
-0.05333793	3.097e-006	
-0.05333582	1.961e-006	
-0.05333687	-3.304e-006	
-0.05333582	5.988e-006	
-0.05333793	3.923e-006	
-0.05333687	1.0427e-005	
-0.05333582	5.059e-006	
-0.05333582	9.291e-006	
-0.05333582	5.368e-006	
-0.05333371	2.374e-006	
-0.05333371	5.16e-007	
-0.05333582	5.781e-006	
-0.05333371	6.091e-006	
-0.05333371	3.097e-006	
-0.05333159	4.749e-006	
-0.05333159	-2.581e-006	
-0.05333582	-5.16e-007	
-0.05333371	-7.23e-007	
-0.05333371	-4.026e-006	
-0.05333371	5.781e-006	
-0.05332948	-2.891e-006	
-0.05333159	2.891e-006	
-0.05333159	3.407e-006	
-0.05333159	-4.13e-007	
-0.05333371	-7.23e-007	
-0.05333371	-3.923e-006	
-0.05333371	1.3524e-005	
-0.05332948	-4.542e-006	
-0.05333054	-2.065e-006	
-0.05333159	1.549e-006	
-0.05332948	2.374e-006	
-0.05332948	1.03e-007	
-0.05333159	3.6235e-005	
-0.05332948	5.781e-006	
-0.05332948	2.374e-006	
-0.05332843	7.433e-006	
-0.05332948	0	
-0.05333159	-2.06e-007	
-0.05332948	-5.16e-007	
-0.05332948	-1.239e-006	
-0.05332737	1.3833e-005	
-0.05332948	-3.51e-006	
-0.05332737	2.787e-006	
-0.05332737	2.065e-006	
-0.05333159	6.19e-007	
-0.05332632	1.136e-006	
-0.05332737	1.239e-006	
-0.05332526	2.065e-006	
-0.05332948	2.787e-006	
-0.05332632	5.575e-006	
-0.05332737	2.06e-007	
-0.05332737	2.787e-006	
-0.05332737	6.19e-007	
-0.05332737	-3.407e-006	
-0.05332737	4.129e-006	
-0.05332526	4.026e-006	
-0.05332526	-2.787e-006	
-0.05332526	1.445e-006	
-0.05332526	9.29e-007	
-0.05332737	2.684e-006	
-0.05332526	3.407e-006	
-0.05332526	-1.03e-007	
-0.05332526	2.374e-006	
-0.05332526	-2.374e-006	
-0.05332526	1.032e-006	
-0.05332737	2.374e-006	
-0.05332526	8.052e-006	
-0.05332526	6.401e-006	
-0.05332526	-2.06e-007	
-0.05332526	3.51e-006	
-0.05332526	4.336e-006	
-0.05332526	-2.478e-006	
-0.05332526	4.129e-006	
-0.05332737	-3.097e-006	
-0.05332315	3.304e-006	
-0.05332526	3.2e-006	
-0.05332526	2.271e-006	
-0.0533242	2.06e-007	
-0.05332526	8.26e-007	
-0.05332526	5.16e-007	
-0.05332315	-7.23e-007	
-0.05332526	3.097e-006	
-0.05332315	8.052e-006	
-0.05332526	-2.06e-007	
-0.05332737	9.29e-007	
-0.05332315	5.781e-006	
-0.05332526	5.265e-006	
-0.05332526	-4.749e-006	
-0.05332315	3.097e-006	
-0.05332315	1.445e-006	
-0.05332209	-6.19e-007	
-0.05332104	-3.097e-006	
-0.05332737	3.1e-007	
-0.05332526	-7.23e-007	
-0.05332526	-1.755e-006	
-0.0533242	1.03e-007	
-0.05332526	2.065e-006	
-0.05332315	-1.239e-006	
-0.05332526	-3.613e-006	
-0.05332315	6.813e-006	
-0.05330204	-1.445e-006	
-0.05332526	-1.652e-006	
-0.05332315	-5.16e-007	
-0.05332526	-6.19e-007	
-0.05332104	-3.1e-007	
-0.05330204	5.059e-006	
-0.05332104	2.271e-006	
-0.05332315	8.26e-007	
-0.05332104	3.82e-006	
-0.05332315	8.26e-007	
-0.05331893	-3.2e-006	
-0.05332104	5.988e-006	
-0.05332104	2.891e-006	
-0.05332104	-7.23e-007	
-0.05332315	0	
-0.05332104	5.781e-006	
-0.05332104	-3.097e-006	
-0.05331998	-1.136e-006	
-0.05332104	2.787e-006	
-0.05331893	1.445e-006	
-0.05331893	1.136e-006	
-0.05331893	2.271e-006	
-0.05331893	3.1e-007	
-0.05332315	8.26e-007	
-0.05332104	-3.407e-006	
-0.05331893	-4.852e-006	
-0.05331893	-1.342e-006	
-0.05331893	-4.955e-006	
-0.05332104	-1.342e-006	
-0.05331893	4.955e-006	
-0.05332104	1.1459e-005	
-0.05331893	-3.1e-007	
-0.05332104	-2.994e-006	
-0.05332104	8.052e-006	
-0.05332104	-3.304e-006	
-0.05332104	-1.136e-006	
-0.05332104	2.478e-006	
-0.05331893	1.03e-007	
-0.05331682	2.374e-006	
-0.05331998	-4.233e-006	
-0.05332104	9.29e-007	
-0.05331682	1.342e-006	
-0.05331893	2.891e-006	
-0.05332104	1.032e-006	
-0.05331893	-1.032e-006	
-0.05332104	-1.652e-006	
-0.05331893	-1.032e-006	
-0.05331682	-1.136e-006	
-0.05331893	6.607e-006	
-0.05331893	3.82e-006	
-0.05331893	2.581e-006	
-0.05331893	-3.1e-007	
-0.05331893	3.2e-006	
-0.05331682	0	
-0.05331682	-8.26e-007	
-0.05331893	-9.29e-007	
-0.05331682	-2.478e-006	
-0.05331682	-9.29e-007	
-0.05331893	-3.304e-006	
-0.05331682	-2.374e-006	
-0.05331682	1.961e-006	
-0.05331682	-1.652e-006	
-0.05331682	3.51e-006	
-0.05331893	3.923e-006	
-0.0533147	-3.51e-006	
-0.05331682	-2.06e-007	
-0.05331682	4.336e-006	
-0.05331682	5.368e-006	
-0.0533147	-6.917e-006	
-0.0533147	-7.846e-006	
-0.0533147	-9.911e-006	
-0.0533147	-6.71e-006	
-0.05331893	-4.439e-006	
-0.0533147	3.613e-006	
-0.05331682	-3.2e-006	
-0.05331682	-1.032e-006	
-0.0533147	-5.781e-006	
-0.05331682	-1.1562e-005	
-0.0533147	-2.6325e-005	
-0.05331048	-0.000127495	
-0.05331048	-3.5926e-005	
-0.05331259	1.4143e-005	
-0.0533147	-3.1e-007	
-0.05331682	7.433e-006	
-0.0533147	1.032e-006	
-0.0533147	-5.575e-006	
-0.0533147	3.2e-006	
-0.0533147	3.613e-006	
-0.05331259	4.233e-006	
-0.0533147	6.917e-006	
-0.0533147	3.613e-006	
-0.0533147	-3.1e-007	
-0.05331259	-4.13e-007	
-0.0533147	2.787e-006	
-0.0533147	-2.994e-006	
-0.05331365	-2.9628e-005	
-0.0533147	-2.4673e-005	
-0.0533147	-2.0337e-005	
-0.0533147	1.6414e-005	
-0.0533147	4.5217e-005	
-0.0533147	-2.994e-006	
-0.05331259	-3.3551e-005	
-0.05331048	-3.6132e-005	
-0.05331365	-1.1562e-005	
-0.0533147	3.2725e-005	
-0.05331682	7.846e-006	
-0.0533147	7.33e-006	
-0.0533147	1.445e-006	
-0.05331893	4.2636e-005	
-0.05331048	-9.033e-005	
-0.05331259	-3.2106e-005	
-0.0533147	-9.498e-006	
-0.0533147	1.3627e-005	
-0.0533147	9.291e-006	
-0.05331259	9.704e-006	
-0.05331259	-1.032e-006	
-0.0533147	8.878e-006	
-0.05331365	1.9305e-005	
-0.0533147	2.2505e-005	
-0.0533147	-1.7034e-005	
-0.0533147	-4.3565e-005	
-0.05331259	-3.2003e-005	
-0.05331154	1.4556e-005	
-0.0533147	5.988e-006	
-0.0533147	1.2698e-005	
-0.05330837	-5.6263e-005	
-0.05331048	-1.7034e-005	
-0.05331259	-8.672e-006	
-0.05331365	1.0323e-005	
-0.0533147	6.813e-006	
-0.05330943	5.368e-006	
-0.05331259	9.911e-006	
-0.05331259	1.3524e-005	
-0.05331154	8.878e-006	
-0.05331259	2.8286e-005	
-0.05331048	-7.949e-006	
-0.0533147	3.3448e-005	
-0.05331259	3.8094e-005	
-0.05331259	-1.9305e-005	
-0.05331259	-1.0323e-005	
-0.05331048	4.336e-006	
-0.0533147	1.9305e-005	
-0.05331048	1.8995e-005	
-0.05331259	9.394e-006	
-0.05331259	4.129e-006	
-0.05331048	-4.542e-006	
-0.05331259	4.955e-006	
-0.05331154	-2.065e-006	
-0.05331154	1.2285e-005	
-0.05331048	-2.9628e-005	
-0.05331048	-5.9979e-005	
-0.05330837	-3.923e-006	
-0.05331048	1.8789e-005	
-0.05331259	1.2801e-005	
-0.05331048	1.239e-006	
-0.05331048	8.775e-006	
-0.05331048	3.0661e-005	
-0.05331048	2.7151e-005	
-0.05331259	2.271e-006	
-0.05331259	1.032e-006	
-0.05331259	1.022e-005	
-0.05330943	-4.2533e-005	
-0.05331048	-2.5293e-005	
-0.05331259	2.044e-005	
-0.05331259	6.1941e-005	
-0.05331048	8.878e-006	
-0.05330837	1.084e-005	
-0.0533147	4.542e-006	
-0.05330837	2.065e-006	
-0.05331259	-7.536e-006	
-0.05331048	-1.5692e-005	
-0.05331048	-1.4866e-005	
-0.05331048	4.852e-006	
-0.05331048	2.787e-006	
-0.05331259	1.4143e-005	
-0.05331048	7.536e-006	
-0.05331048	-4.129e-006	
-0.05331048	-1.445e-006	
-0.05331259	-1.445e-006	
-0.05330943	-4.955e-006	
-0.05331154	-1.858e-006	
-0.05331048	3.716e-006	
-0.05330837	-1.445e-006	
-0.05331259	-9.29e-007	
-0.05331048	7.639e-006	
-0.05331048	-4.13e-007	
-0.05331048	-3.716e-006	
-0.05331048	-1.053e-005	
-0.05330837	-4.13e-007	
-0.05331259	-6.813e-006	
-0.05331154	-1.1356e-005	
-0.05331048	5.16e-007	
-0.05331259	6.813e-006	
-0.05331048	3.097e-006	
-0.05331048	-4.233e-006	
-0.05330837	-5.8947e-005	
-0.05331048	8.052e-006	
-0.05331259	-1.3214e-005	
-0.05330837	-1.7756e-005	
-0.05331259	2.5293e-005	
-0.05331048	-1.549e-006	
-0.05330837	-1.8479e-005	
-0.05330943	3.4584e-005	
-0.05330837	2.0234e-005	
-0.05330837	1.404e-005	
-0.05331048	5.575e-006	
-0.05330943	-2.891e-006	
-0.05331154	1.1149e-005	
-0.05331048	-3.1e-007	
-0.05331048	7.433e-006	
-0.05331048	5.059e-006	
-0.05330626	-8.052e-006	
-0.05331048	1.4763e-005	
-0.05330837	2.065e-006	
-0.05330731	-1.1769e-005	
-0.05330837	-4.3668e-005	
-0.05331048	-9.807e-006	
-0.05330837	7.23e-007	
-0.05330837	1.3524e-005	
-0.05330943	1.0014e-005	
-0.05331048	-4.749e-006	
-0.05330837	-1.022e-005	
-0.05331259	-9.29e-007	
-0.05330837	-4.439e-006	
-0.05330837	-2.684e-006	
-0.05330626	-7.536e-006	
-0.05331048	-3.82e-006	
-0.05331048	-6.607e-006	
-0.05331048	3.9023e-005	
-0.05330731	-1.2904e-005	
-0.05330626	-5.234e-005	
-0.05331048	0	
-0.05330626	-1.2285e-005	
-0.05330837	9.911e-006	
-0.05330626	6.813e-006	
-0.05331048	2.5912e-005	
-0.05330837	-2.9009e-005	
-0.05330837	-3.5513e-005	
-0.05330626	-2.1783e-005	
-0.05330837	4.852e-005	
-0.05330837	6.297e-006	
-0.05330626	-8.672e-006	
-0.05330837	-4.646e-006	
-0.05330837	-7.639e-006	
-0.05330837	8.26e-007	
-0.05330731	-3.097e-006	
-0.05330837	1.961e-006	
-0.05330626	-3.304e-006	
-0.05330626	-2.168e-006	
-0.05330837	-3.1e-007	
-0.05330837	-2.065e-006	
-0.05330837	3.2e-006	
-0.05331048	5.162e-006	
-0.05330837	7.23e-007	
-0.05330731	-1.858e-006	
-0.05330837	-1.03e-007	
-0.05330626	3.923e-006	
-0.05330837	4.542e-006	
-0.05330731	-1.03e-007	
-0.05330731	9.704e-006	
-0.05330731	2.374e-006	
-0.05330731	-4.13e-007	
-0.05330626	7.226e-006	
-0.05330837	8.775e-006	
-0.05330837	8.775e-006	
-0.05330626	-1.858e-006	
-0.05330837	-3.097e-006	
-0.05330837	-4.439e-006	
-0.05330626	-6.917e-006	
-0.05330626	-1.03e-007	
-0.05330626	-3.1e-007	
-0.05330837	1.0323e-005	
-0.05331048	-4.749e-006	
-0.05331048	6.297e-006	
-0.05330837	3.923e-006	
-0.05330837	3.407e-006	
-0.05330837	-4.749e-006	
-0.05330837	1.136e-006	
-0.05330837	-9.29e-007	
-0.05330837	6.401e-006	
-0.05330626	2.065e-006	
-0.05330837	2.994e-006	
-0.05331048	-7.23e-007	
-0.05330837	1.445e-006	
-0.05330626	-4.233e-006	
-0.05330837	6.19e-007	
-0.05330626	1.032e-006	
-0.05330837	-1.5279e-005	
-0.05330837	-1.2801e-005	
-0.05330626	-7.433e-006	
-0.05331048	-1.1872e-005	
-0.05330626	-6.813e-006	
-0.05330626	-5.884e-006	
-0.05330626	-4.852e-006	
-0.05330626	-9.291e-006	
-0.05330626	-6.297e-006	
-0.05330626	-2.374e-006	
-0.05330626	-2.0957e-005	
-0.05330626	-1.053e-005	
-0.05330626	1.032e-006	
-0.05330626	1.961e-006	
-0.05330837	6.091e-006	
-0.0533052	4.129e-006	
-0.05330626	1.032e-006	
-0.0533052	3.613e-006	
-0.05330626	1.136e-006	
-0.05330626	2.684e-006	
-0.05330415	4.13e-007	
-0.05330626	-5.16e-007	
-0.05330626	6.813e-006	
-0.05330415	-6.194e-006	
-0.05330731	-8.156e-006	
-0.05330415	-6.19e-007	
-0.05330731	1.0633e-005	
-0.05330415	-3.407e-006	
-0.05330837	4.439e-006	
-0.05330204	2.478e-006	
-0.05330731	3.1e-007	
-0.05330626	6.401e-006	
-0.05330309	4.026e-006	
-0.05330415	-7.123e-006	
-0.05330415	4.13e-007	
-0.05330415	2.271e-006	
-0.05330415	3.923e-006	
-0.05330626	-3.82e-006	
-0.05330626	3.716e-006	
-0.05330415	-6.297e-006	
-0.05330626	2.684e-006	
-0.05330626	-1.652e-006	
-0.05330415	4.13e-007	
-0.05330415	1.239e-006	
-0.05330415	5.059e-006	
-0.0533052	4.129e-006	
-0.05330626	-1.032e-006	
-0.05330837	2.684e-006	
-0.05331259	9.807e-006	
-0.05332737	-1.136e-006	
-0.05338437	2.271e-006	
-0.05370739	6.194e-006	
-0.05412119	1.0736e-005	
-0.05466694	7.949e-006	
-0.05532564	9.911e-006	
-0.0560044	7.02e-006	
-0.05676233	7.433e-006	
-0.05732602	1.239e-006	
-0.05783694	-9.29e-007	
-0.05831302	7.433e-006	
-0.05883871	5.575e-006	
-0.05941296	8.052e-006	
-0.05997983	-2.5705e-005	
-0.06030495	5.575e-006	
-0.0604633	5.162e-006	
-0.0606153	5.265e-006	
-0.06086548	5.265e-006	
-0.06123284	8.26e-007	
-0.06164452	8.775e-006	
-0.0622325	2.168e-006	
-0.06278459	1.858e-006	
-0.06324167	-6.19e-007	
-0.06368714	2.168e-006	
-0.06405027	5.781e-006	
-0.06444507	4.852e-006	
-0.0649127	4.129e-006	
-0.06536239	-3.2e-006	
-0.06597887	-4.13e-007	
-0.06653517	7.949e-006	
-0.06704187	5.162e-006	
-0.06725932	5.16e-007	
-0.06747889	1.549e-006	
-0.06775124	2.891e-006	
-0.06804259	6.917e-006	
-0.06835188	6.194e-006	
-0.0686559	2.684e-006	
-0.06902747	5.575e-006	
-0.06942121	5.988e-006	
-0.06970939	4.439e-006	
-0.07004508	2.168e-006	
-0.07039871	1.0943e-005	
-0.07081251	9.704e-006	
-0.07120942	1.858e-006	
-0.07175622	6.19e-007	
-0.07218269	1.755e-006	
-0.07252154	3.51e-006	
-0.07273688	5.781e-006	
-0.072891	1.858e-006	
-0.0730599	2.891e-006	
-0.0732858	2.891e-006	
-0.07340192	7.639e-006	
-0.07349587	2.581e-006	
-0.07359615	4.542e-006	
-0.07374816	5.988e-006	
-0.07385794	0	
-0.07395823	8.052e-006	
-0.07409334	4.646e-006	
-0.0742918	5.781e-006	
-0.07446492	9.291e-006	
-0.0747626	1.2182e-005	
-0.07503073	6.607e-006	
-0.0751954	7.846e-006	
-0.07533791	5.368e-006	
-0.07547619	6.504e-006	
-0.07564826	3.923e-006	
-0.07601772	7.433e-006	
-0.07639985	3.716e-006	
-0.07671653	4.955e-006	
-0.07695932	8.052e-006	
-0.0770955	3.716e-006	
-0.07743752	-1.1975e-005	
-0.07765708	-1.136e-006	
-0.07781754	7.846e-006	
-0.07802866	-5.16e-007	
-0.07835167	-4.13e-007	
-0.0785913	4.026e-006	
-0.07880453	5.988e-006	
-0.07890798	3.1e-007	
-0.07895654	5.988e-006	
-0.07907266	5.988e-006	
-0.07937984	3.097e-006	
-0.07949596	4.646e-006	
-0.07969335	5.884e-006	
-0.0798897	3.097e-006	
-0.08005121	7.23e-007	
-0.08022749	2.168e-006	
-0.08043228	3.097e-006	
-0.08057479	3.716e-006	
-0.08075847	2.374e-006	
-0.08096537	4.13e-007	
-0.08121027	-3.1e-007	
-0.08150584	7.23e-007	
-0.08177502	1.032e-006	
-0.08206531	6.091e-006	
-0.0823081	-8.26e-007	
-0.08252872	8.26e-007	
-0.08281796	9.291e-006	
-0.08312198	6.401e-006	
-0.08340279	3.51e-006	
-0.08360969	3.51e-006	
-0.08389048	6.607e-006	
-0.08416283	1.239e-006	
-0.08445312	-1.136e-006	
-0.08474025	5.162e-006	
-0.08501682	2.787e-006	
-0.08530817	9.188e-006	
-0.08562907	1.858e-006	
-0.08610937	-1.03e-007	
-0.08661184	9.911e-006	
-0.08709954	4.646e-006	
-0.08748378	3.82e-006	
-0.08784374	8.26e-007	
-0.08824698	1.652e-006	
-0.088589	6.504e-006	
-0.08933848	1.136e-006	
-0.09023892	2.684e-006	
-0.09083851	1.549e-006	
-0.09125758	3.304e-006	
-0.0917305	1.342e-006	
-0.09227836	1.1356e-005	
-0.09279033	3.2e-006	
-0.09323685	7.02e-006	
-0.09341842	6.401e-006	
-0.09365276	4.542e-006	
-0.0938681	8.259e-006	
-0.09413411	5.471e-006	
-0.09444657	-4.955e-006	
-0.09472842	4.13e-007	
-0.09488465	4.646e-006	
-0.09511266	6.917e-006	
-0.09530689	4.336e-006	
-0.0954019	3.613e-006	
-0.09557502	4.129e-006	
-0.09580725	2.787e-006	
-0.09592548	1.858e-006	
-0.09608593	6.607e-006	
-0.09628861	1.0736e-005	
-0.09662113	5.16e-007	
-0.09695048	7.123e-006	
-0.09721227	6.71e-006	
-0.09743712	3.097e-006	
-0.0977253	8.26e-007	
-0.09795436	1.445e-006	
-0.09813698	2.065e-006	
-0.09830377	2.478e-006	
-0.09853284	2.168e-006	
-0.09875029	4.13e-007	
-0.0990332	6.71e-006	
-0.09936255	-1.053e-005	
-0.09975946	-4.749e-006	
-0.10024398	-2.7357e-005	
-0.10048255	2.891e-006	
-0.1007739	1.0323e-005	
-0.10107264	2.787e-006	
-0.10150016	8.568e-006	
-0.10201213	1.2388e-005	
-0.10243015	2.1679e-005	
-0.10278484	2.6015e-005	
-0.10326514	2.0647e-005	
-0.10376866	5.368e-006	
-0.10412229	-4.13e-007	
-0.10442633	-3.2416e-005	
-0.10473457	-8.672e-006	
-0.10492247	2.994e-006	
-0.10512514	2.891e-006	
-0.10516737	1.2801e-005	
-0.10524232	3.923e-006	
-0.10524021	1.4453e-005	
-0.10523704	1.4866e-005	
-0.10526237	9.498e-006	
-0.10539749	1.0014e-005	
-0.105521	-1.136e-006	
-0.10569201	-3.304e-006	
-0.10586302	-7.226e-006	
-0.10615647	-2.0957e-005	
-0.10647105	4.13e-007	
-0.10670117	1.239e-006	
-0.10699463	6.19e-007	
-0.1072047	2.787e-006	
-0.10741793	1.2182e-005	
-0.10759527	2.4157e-005	
-0.1078634	2.8493e-005	
-0.10810619	9.911e-006	
-0.10826664	4.955e-006	
-0.10838487	6.813e-006	
-0.10858543	1.2182e-005	
-0.10873322	1.239e-006	
-0.10875644	2.168e-006	
-0.10875644	1.2182e-005	
-0.10877122	9.085e-006	
-0.10887573	3.613e-006	
-0.10891584	4.542e-006	
-0.10894751	4.542e-006	
-0.10916496	1.755e-006	
-0.10956821	3.097e-006	
-0.10986378	5.781e-006	
-0.11018257	4.955e-006	
-0.11057315	-2.271e-006	
-0.11093311	2.168e-006	
-0.11149047	5.678e-006	
-0.11203306	2.891e-006	
-0.11254925	8.259e-006	
-0.11286593	7.846e-006	
-0.11313617	-2.994e-006	
-0.11341591	2.374e-006	
-0.11364497	6.401e-006	
-0.11381176	6.297e-006	
-0.11396482	2.478e-006	
-0.11413372	3.613e-006	
-0.11418545	1.136e-006	
-0.11420022	5.059e-006	
-0.11442718	7.639e-006	
-0.11487053	8.465e-006	
-0.11519354	7.433e-006	
-0.11548278	7.743e-006	
-0.11579313	6.19e-007	
-0.11610453	6.19e-007	
-0.11655845	4.233e-006	
-0.11697647	1.755e-006	
-0.11733749	1.858e-006	
-0.11779879	8.26e-007	
-0.11808803	6.194e-006	
-0.11835193	3.097e-006	
-0.11876995	7.33e-006	
-0.11918164	6.19e-007	
-0.11946137	1.2595e-005	
-0.11959649	3.097e-006	
-0.11972	9.807e-006	
-0.12006096	0	
-0.12070066	1.961e-006	
-0.1212253	4.336e-006	
-0.12159476	6.813e-006	
-0.12185867	1.652e-006	
-0.12213312	7.33e-006	
-0.12242447	-2.271e-006	
-0.12284672	1.652e-006	
-0.12344314	4.129e-006	
-0.12422006	6.813e-006	
-0.1252324	1.032e-006	
-0.12609378	-3.923e-006	
-0.12643474	-1.239e-006	
-0.1266902	-1.652e-006	
-0.12688655	-2.168e-006	
-0.12704911	-1.342e-006	
-0.1274228	1.3008e-005	
-0.12804244	4.749e-006	
-0.12858925	1.652e-006	
-0.1291255	7.23e-007	
-0.12955196	2.065e-006	
-0.13004704	6.813e-006	
-0.13053473	5.678e-006	
-0.13117866	1.239e-006	
-0.13170435	-4.646e-006	
-0.1322501	8.26e-007	
-0.13298481	-5.059e-006	
-0.13397602	-4.233e-006	
-0.13494718	-2.374e-006	
-0.13559005	-2.374e-006	
-0.13608198	-2.065e-006	
-0.13668895	-1.652e-006	
-0.1372062	4.13e-007	
-0.137563	-5.16e-007	
-0.13786068	-1.239e-006	
-0.13813514	2.581e-006	
-0.13857955	-1.445e-006	
-0.13910524	-1.136e-006	
-0.13953171	2.06e-007	
-0.13975128	-4.749e-006	
-0.14016402	1.342e-006	
-0.1407615	-2.271e-006	
-0.14155531	-1.342e-006	
-0.14221929	-2.891e-006	
-0.14301522	-3.613e-006	
-0.14369292	-1.652e-006	
-0.14421756	-2.684e-006	
-0.14489315	-1.858e-006	
-0.14573025	-3.716e-006	
-0.14666552	-6.297e-006	
-0.14742028	-1.445e-006	
-0.14830489	-1.0943e-005	
-0.14906598	-8.052e-006	
-0.14983446	-9.911e-006	
-0.1505565	-6.917e-006	
-0.15150761	-1.6001e-005	
-0.15222753	-1.5279e-005	
-0.15264344	-1.786e-005	
-0.15307096	-1.4969e-005	
-0.15340032	-1.3008e-005	
-0.15374444	-2.0544e-005	
-0.15424903	-1.3833e-005	
-0.15472933	-2.3228e-005	
-0.15492778	-2.5809e-005	
-0.15511357	-2.9215e-005	
-0.15534158	-2.808e-005	
-0.15566038	-3.0867e-005	
-0.15611112	-3.479e-005	
-0.1566157	-3.541e-005	
-0.15713507	-3.83e-005	
-0.15763543	-4.2946e-005	
-0.15811996	-4.9346e-005	
-0.15857598	-4.4288e-005	
-0.15907845	-5.3476e-005	
-0.1596242	-5.265e-005	
-0.16016679	-5.616e-005	
-0.16053203	-6.958e-005	
-0.16089516	-6.6483e-005	
-0.16129629	-7.3193e-005	
-0.16159292	-7.5774e-005	
-0.16198982	-7.9284e-005	
-0.16236562	-7.9284e-005	
-0.16274142	-8.3414e-005	
-0.16313938	-8.3827e-005	
-0.16358485	-9.3427e-005	
-0.16408521	-9.2292e-005	
-0.16441245	-8.9092e-005	
-0.16466368	-9.5699e-005	
-0.1650152	-0.000102925	
-0.16542267	-0.000107467	
-0.16582802	-0.000108706	
-0.16617426	-0.000114591	
-0.16658806	-0.000107261	
-0.16737131	-0.000115623	
-0.16792129	-0.000120475	
-0.16832664	-0.000125843	
-0.16865283	-0.000130385	
-0.16905818	-0.00013658	
-0.16957754	-0.000144219	
-0.16974327	-0.000146077	
-0.16981611	-0.000142877	
-0.1700399	-0.000143599	
-0.17036608	-0.000143703	
-0.17070176	-0.000150413	
-0.17118101	-0.000156917	
-0.17150825	-0.000172712	
-0.17193049	-0.000178286	
-0.17218701	-0.00018159	
-0.17247625	-0.000189332	
-0.17270426	-0.000198004	
-0.1729576	-0.000206779	
-0.17318456	-0.000212767	
-0.1733904	-0.000220406	
-0.17368914	-0.00022691	
-0.17415678	-0.000251583	
-0.17450407	-0.000262836	
-0.17478275	-0.000277598	
-0.17513638	-0.000297213	
-0.17524933	-0.00030351	
-0.17539712	-0.000314556	
-0.17561141	-0.000322712	
-0.17582675	-0.000341397	
-0.1760706	-0.000359154	
-0.17645167	-0.000385788	
-0.1768887	-0.000420681	
-0.17736055	-0.000460736	
-0.17781659	-0.00049883	
-0.17829795	-0.000545699	
-0.17861674	-0.000577495	
-0.17882153	-0.000604852	
-0.17897565	-0.000626944	
-0.17918994	-0.000652753	
-0.17944962	-0.000691156	
-0.17973252	-0.000742464	
-0.18013576	-0.00079563	
-0.18042289	-0.000856022	
-0.1808198	-0.000914143	
-0.18134232	-0.000982485	
-0.18187857	-0.001065074	
-0.18236732	-0.001168206	
-0.1830028	-0.001283829	
-0.18350527	-0.001419479	
-0.18406474	-0.001542432	
-0.18440043	-0.001640608	
-0.18466961	-0.001710807	
-0.1848744	-0.001784414	
-0.18509607	-0.001867518	
-0.18532409	-0.001972507	
-0.18557954	-0.002087926	
-0.18578011	-0.002185895	
-0.18590256	-0.002250211	
-0.18603346	-0.002309054	
-0.18612107	-0.002365111	
-0.1862013	-0.002441092	
-0.18635542	-0.002524196	
-0.18642509	-0.002565489	
-0.18650109	-0.002623094	
-0.18664888	-0.002722819	
-0.18677555	-0.00282337	
-0.18693178	-0.002904203	
-0.18703523	-0.002958297	
-0.1870859	-0.00297688	
-0.18711335	-0.002989991	
-0.18719991	-0.003037066	
-0.18733502	-0.00310964	
-0.1874807	-0.003163631	
-0.18756515	-0.003214732	
-0.18769182	-0.003271305	
-0.18773932	-0.003297217	
-0.18773615	-0.003285551	
-0.18774038	-0.003289991	
-0.18773404	-0.003291436	
-0.18777099	-0.003323645	
-0.18799584	-0.003396322	
-0.18827134	-0.003528772	
-0.18856902	-0.003654099	
-0.18881392	-0.003724196	
-0.18894271	-0.003770651	
-0.18913905	-0.003838064	
-0.18932273	-0.003904031	
-0.18943251	-0.003946254	
-0.18963835	-0.004015008	
-0.18984525	-0.004097905	
-0.19000782	-0.004143331	
-0.19011127	-0.004197839	
-0.19036884	-0.004319655	
-0.19051029	-0.004352691	
-0.19059263	-0.004379738	
-0.19068763	-0.004423922	
-0.19086075	-0.004506097	
-0.19102965	-0.004559676	
-0.19124077	-0.004613978	
-0.19145295	-0.004668485	
-0.19167463	-0.004714322	
-0.1920082	-0.004774714	
-0.192384	-0.004846875	
-0.19253812	-0.004814459	
-0.19275768	-0.004834074	
-0.19312926	-0.004846359	
-0.19351878	-0.00482788	
-0.19379112	-0.004830874	
-0.19409514	-0.004816524	
-0.19441605	-0.004761913	
-0.19467573	-0.00472702	
-0.19498608	-0.004661156	
-0.1950758	-0.00462874	
-0.19512436	-0.004628224	
-0.19527848	-0.004621617	
-0.1953397	-0.004633695	
-0.19533548	-0.004618623	
-0.19535237	-0.004578671	
-0.19553183	-0.004553379	
-0.19558672	-0.00453077	
-0.19558988	-0.004532216	
-0.1956015	-0.004539855	
-0.19559305	-0.004528499	
-0.19570072	-0.004477914	
-0.19586751	-0.00443662	
-0.19598996	-0.004358162	
-0.19609341	-0.004272477	
-0.19620425	-0.004210227	
-0.19637631	-0.004113081	
-0.19659694	-0.003927775	
-0.1969569	-0.00370933	
-0.19721025	-0.003589165	
-0.19738653	-0.003442159	
-0.19765466	-0.003282248	
-0.197832	-0.003168896	
-0.19804523	-0.003062771	
-0.19834714	-0.002916178	
-0.19870395	-0.002773817	
-0.1990787	-0.002665214	
-0.19919059	-0.002608229	
-0.19941227	-0.002516969	
-0.1995685	-0.00245988	
-0.19954528	-0.002440163	
-0.19965717	-0.002386171	
-0.19971945	-0.00239381	
-0.19980073	-0.00231752	
-0.19986196	-0.002270754	
-0.19987779	-0.002255889	
-0.19986407	-0.002262702	
-0.19985774	-0.002264973	
-0.19985774	-0.002266006	
-0.19986196	-0.002273542	
-0.19986829	-0.002255992	
-0.19990841	-0.002214698	
-0.2000583	-0.002155028	
-0.20021875	-0.002070995	
-0.20035282	-0.00197994	
-0.20049427	-0.00190654	
-0.20058083	-0.001853684	
-0.20069061	-0.001821062	
-0.20070328	-0.001787304	
-0.20085318	-0.001726499	
-0.20093974	-0.001667139	
-0.20095346	-0.001660532	
-0.20097352	-0.001646492	
-0.20104319	-0.001605611	
-0.2010833	-0.001562253	
-0.2012332	-0.001471819	
-0.2013472	-0.001427428	
-0.20135142	-0.001425776	
-0.2013662	-0.001398729	
-0.20150132	-0.001324503	
-0.20168077	-0.001219926	
-0.20206185	-0.001096974	
-0.20213785	-0.001060945	
-0.20218008	-0.001058467	
-0.20218641	-0.001049073	
-0.20218852	-0.001047421	
-0.20225397	-0.001014902	
-0.20249043	-0.000953682	
-0.20266988	-0.000905059	
-0.20292323	-0.000828975	
-0.2031259	-0.000771886	
-0.20335919	-0.000709842	
-0.2036611	-0.00063128	
-0.20391656	-0.00055437	
-0.20413401	-0.000507192	
-0.20427124	-0.000471886	
-0.20430713	-0.000461459	
-0.2043388	-0.000462801	
-0.20441692	-0.000446284	
-0.20458159	-0.000411081	
-0.20483916	-0.000352856	
-0.20520968	-0.000304646	
-0.20557914	-0.000282863	
-0.20617767	-0.00024033	
-0.2065408	-0.000220406	
-0.20664636	-0.000218858	
-0.20680998	-0.000200172	
-0.20699049	-0.000184171	
-0.20724806	-0.00016084	
-0.20766397	-0.000134618	
-0.20823189	-0.000106125	
-0.20875442	-8.1452e-005	
-0.20923577	-5.9153e-005	
-0.20957356	-4.5423e-005	
-0.21021537	-3.6855e-005	
-0.21080335	-2.6944e-005	
-0.21144516	-1.5898e-005	
-0.21211653	-1.3111e-005	
-0.2129874	-8.878e-006	
-0.21374744	-7.536e-006	
-0.21413169	-1.342e-006	
-0.21447265	-6.917e-006	
-0.21465844	-1.1872e-005	
-0.21507857	1.858e-006	
-0.21539103	-3.923e-006	
-0.21570349	-9.498e-006	
-0.21606556	-1.3008e-005	
-0.21615635	-7.33e-006	
-0.21648042	8.362e-006	
-0.21694383	6.917e-006	
-0.21758142	1.5072e-005	
-0.21801633	-1.136e-006	
-0.21828762	9.29e-007	
-0.21860642	5.471e-006	
-0.21912789	4.026e-006	
-0.2200811	3.613e-006	
-0.2215769	3.923e-006	
-0.2224425	1.755e-006	
-0.22290486	1.858e-006	
-0.22319199	-3.304e-006	
-0.22352239	0	
-0.2237863	-7.23e-007	
-0.22402486	1.858e-006	
-0.22421698	4.129e-006	
-0.22443866	2.581e-006	
-0.22452311	4.749e-006	
-0.22477224	-3.097e-006	
-0.22502664	-1.755e-006	
-0.22520504	2.891e-006	
-0.22531799	1.652e-006	
-0.22544466	5.575e-006	
-0.22559456	-1.136e-006	
-0.22566423	-1.652e-006	
-0.22582257	2.271e-006	
-0.22609914	-1.032e-006	
-0.22647599	3.097e-006	
-0.226685	-4.13e-007	
-0.22705446	-2.065e-006	
-0.22714841	5.884e-006	
-0.22737537	3.51e-006	
-0.22755482	1.03e-007	
-0.22778284	7.02e-006	
-0.22796651	2.271e-006	
-0.22797918	-2.168e-006	
-0.22798762	-2.271e-006	
-0.22799818	8.26e-007	
-0.22799185	2.065e-006	
-0.22799607	-1.858e-006	
-0.22800451	2.168e-006	
-0.22801507	7.743e-006	
-0.22802774	-1.549e-006	
-0.22803724	-2.891e-006	
-0.22805307	-1.858e-006	
-0.22807418	-1.961e-006	
-0.22808896	1.032e-006	
-0.22808474	2.065e-006	
-0.22809107	6.194e-006	
-0.22809107	4.542e-006	
-0.22807841	4.026e-006	
-0.2280763	2.06e-007	
-0.22807418	-3.613e-006	
-0.2280763	2.065e-006	
-0.22807735	7.226e-006	
-0.22807735	7.02e-006	
-0.22807841	7.226e-006	
-0.22808474	8.362e-006	
-0.22808685	7.433e-006	
-0.22808474	1.342e-006	
-0.22808685	1.239e-006	
-0.22809318	5.368e-006	
-0.22808896	3.51e-006	
-0.22809318	2.065e-006	
-0.22809318	3.51e-006	
-0.2280953	1.239e-006	
-0.22809318	1.032e-006	
-0.2280953	8.568e-006	
-0.2280953	-8.26e-007	
-0.22809318	4.749e-006	
-0.22809635	4.646e-006	
-0.22809424	6.607e-006	
-0.22809318	-1.549e-006	
-0.2280953	2.168e-006	
-0.22809741	2.478e-006	
-0.22809741	5.16e-007	
-0.22809635	-2.06e-007	
-0.22809741	2.065e-006	
-0.22809741	7.536e-006	
-0.2280953	4.955e-006	
-0.22811007	5.471e-006	
-0.22813646	-2.684e-006	
-0.22814808	-3.097e-006	
-0.22816074	1.961e-006	
-0.22817447	1.239e-006	
-0.22818186	3.716e-006	
-0.22818925	8.878e-006	
-0.22820614	5.471e-006	
-0.22822091	6.401e-006	
-0.22823675	5.781e-006	
-0.22824097	3.407e-006	
-0.22824625	1.032e-006	
-0.22824625	-1.961e-006	
-0.22824836	-1.0427e-005	
-0.22825153	-3.407e-006	
-0.22825153	-2.065e-006	
-0.22825047	-1.858e-006	
-0.22824942	2.168e-006	
-0.22824519	-1.239e-006	
-0.22824836	-3.407e-006	
-0.22824836	4.129e-006	
-0.22825258	-3.82e-006	
-0.22824942	-1.549e-006	
-0.22825153	8.26e-007	
-0.22825153	1.755e-006	
-0.22824942	-1.652e-006	
-0.22825047	3.2e-006	
-0.22825047	3.304e-006	
-0.22825047	-8.26e-007	
-0.22825047	2.06e-007	
-0.22825047	2.065e-006	
-0.22824519	-3.51e-006	
-0.2282473	1.03e-007	
-0.22824625	-8.26e-007	
-0.2282473	4.955e-006	
-0.22825047	8.672e-006	
-0.2282473	7.33e-006	
-0.22824625	9.291e-006	
-0.22825047	2.684e-006	
-0.22825258	9.291e-006	
-0.2282473	8.362e-006	
-0.22824942	7.02e-006	
-0.2282473	-1.858e-006	
-0.22825258	2.994e-006	
-0.22825047	2.06e-007	
-0.22825153	4.13e-007	
-0.22824942	8.26e-007	
-0.22824519	-1.9202e-005	
-0.22824836	1.342e-006	
-0.22824942	6.19e-007	
-0.2282473	8.878e-006	
-0.22824836	-3.1e-007	
-0.22825364	2.891e-006	
-0.22825153	3.097e-006	
-0.22825258	3.613e-006	
-0.22824942	1.032e-006	
-0.22825153	-3.923e-006	
-0.2282473	-2.168e-006	
-0.22824836	-3.923e-006	
-0.22825047	7.743e-006	
-0.22824836	5.884e-006	
-0.22825153	6.813e-006	
-0.22825047	-7.23e-007	
-0.22825047	2.478e-006	
-0.22823253	3.716e-006	
-0.2281998	3.51e-006	
-0.2281903	0	
-0.2281903	3.716e-006	
-0.22818186	1.755e-006	
-0.22817869	-4.336e-006	
-0.2281713	3.51e-006	
-0.2281618	2.065e-006	
-0.22815652	4.129e-006	
-0.22815124	5.16e-007	
-0.22814808	2.06e-007	
-0.22814597	5.988e-006	
-0.22813963	6.19e-007	
-0.22813963	-2.06e-007	
-0.22814174	7.02e-006	
-0.22813435	4.13e-007	
-0.22813541	1.342e-006	
-0.22812908	3.2e-006	
-0.22813119	4.955e-006	
-0.22812696	1.136e-006	
-0.22812063	-1.239e-006	
-0.2281143	4.129e-006	
-0.2281143	1.032e-006	
-0.22811007	1.1562e-005	
-0.22810163	3.304e-006	
-0.22809741	2.787e-006	
-0.2280953	-2.065e-006	
-0.22809107	4.129e-006	
-0.22808474	2.374e-006	
-0.22806785	6.607e-006	
-0.22804252	3.2e-006	
-0.22795807	-1.755e-006	
-0.22777228	6.19e-007	
-0.22762238	2.374e-006	
-0.22744715	-2.684e-006	
-0.22719169	-1.858e-006	
-0.22697424	-1.136e-006	
-0.22681379	-5.575e-006	
-0.22650344	-5.265e-006	
-0.22596402	-5.678e-006	
-0.22493163	3.304e-006	
-0.2242951	-6.813e-006	
-0.2239003	-9.394e-006	
-0.22368073	-1.2698e-005	
-0.22331972	-2.3434e-005	
-0.2231371	-7.743e-006	
-0.22296503	-2.684e-006	
-0.22279086	-7.33e-006	
-0.22259451	-7.226e-006	
-0.22237917	-1.4969e-005	
-0.22208571	-1.7756e-005	
-0.22165502	-2.0853e-005	
-0.22122961	-3.2416e-005	
-0.22081686	-3.7681e-005	
-0.2205044	-4.5114e-005	
-0.22010011	-4.9656e-005	
-0.21971164	-5.936e-005	
-0.21936118	-6.8961e-005	
-0.219092	-7.5258e-005	
-0.21871831	-9.2498e-005	
-0.21822006	-0.000100551	
-0.21773026	-0.000129456	
-0.21746319	-0.00013978	
-0.21721196	-0.000163214	
-0.21683194	-0.000185513	
-0.21646881	-0.000215348	
-0.21610568	-0.000255816	
-0.21568449	-0.000302168	
-0.21524324	-0.000356366	
-0.21501945	-0.000402099	
-0.21466371	-0.000464659	
-0.21430164	-0.000571714	
-0.21391001	-0.000674639	
-0.21347721	-0.00077839	
-0.21306763	-0.000887302	
-0.21265383	-0.000997043	
-0.21224637	-0.001129906	
-0.21186529	-0.001253581	
-0.2116035	-0.00135537	
-0.2114536	-0.001423092	
-0.21136493	-0.001497525	
-0.21108625	-0.001624606	
-0.21082868	-0.001734551	
-0.21071995	-0.001814352	
-0.21057217	-0.001941124	
-0.2103811	-0.002090816	
-0.21012459	-0.002271271	
-0.20974457	-0.002512943	
-0.20929171	-0.00274615	
-0.20903943	-0.002920101	
-0.20880931	-0.003081456	
-0.20866891	-0.003164767	
-0.20860135	-0.003212565	
-0.20849896	-0.003269137	
-0.20846201	-0.003287616	
-0.20842401	-0.00330114	
-0.2083934	-0.003355028	
-0.20825511	-0.003435861	
-0.20808622	-0.003533005	
-0.20797643	-0.003582248	
-0.20794476	-0.003623026	
-0.20777587	-0.003781388	
-0.2074254	-0.004049075	
-0.20692821	-0.004299421	
-0.20659886	-0.004445086	
-0.20622095	-0.004602312	
-0.20580293	-0.004713496	
-0.2055517	-0.004780289	
-0.2051664	-0.004821479	
-0.20501228	-0.004843365	
-0.20482649	-0.004868451	
-0.20465337	-0.004903757	
-0.20445281	-0.004922959	
-0.20431769	-0.004982835	
-0.20403056	-0.004981287	
-0.20381522	-0.005006992	
-0.20357559	-0.005018038	
-0.2034447	-0.005028155	
-0.20317869	-0.005008128	
-0.20283033	-0.004955478	
-0.20234264	-0.004886104	
-0.20191406	-0.004786792	
-0.2015351	-0.004665388	
-0.20101152	-0.004524473	
-0.20067161	-0.004425574	
-0.20038026	-0.00430799	
-0.19992741	-0.004172236	
-0.19975851	-0.004078291	
-0.1995305	-0.003977843	
-0.19919692	-0.003857162	
-0.19903858	-0.003771787	
-0.19893091	-0.003701794	
-0.19873562	-0.00357657	
-0.19844953	-0.003430183	
-0.19821835	-0.003320445	
-0.19804734	-0.003250039	
-0.19787528	-0.003145772	
-0.19769266	-0.003064629	
-0.19743298	-0.002945806	
-0.1971353	-0.002821615	
-0.19685239	-0.002646942	
-0.19655471	-0.002510878	
-0.19626231	-0.00236635	
-0.19593296	-0.002207988	
-0.19562683	-0.002057162	
-0.19514125	-0.00189281	
-0.19475384	-0.001757676	
-0.19436115	-0.001616761	
-0.19383335	-0.00148844	
-0.1933161	-0.001349796	
-0.19277668	-0.001233037	
-0.19222565	-0.00113228	
-0.19187097	-0.001056093	
-0.19160707	-0.000979491	
-0.19137272	-0.000917447	
-0.19106554	-0.000835272	
-0.19079108	-0.000780454	
-0.19052507	-0.000731728	
-0.19034139	-0.000705093	
-0.19015983	-0.000692085	
-0.18998882	-0.000660083	
-0.18968269	-0.000610324	
-0.18931217	-0.000566655	
-0.1888667	-0.000528871	
-0.18840435	-0.000483448	
-0.18786811	-0.000447626	
-0.18739625	-0.000419546	
-0.18707112	-0.000393118	
-0.18679983	-0.000377633	
-0.18655809	-0.000357192	
-0.18616752	-0.000332622	
-0.18576533	-0.000305884	
-0.18534942	-0.000287405	
-0.18495251	-0.000270372	
-0.1845936	-0.000246937	
-0.18415553	-0.000226807	
-0.18356333	-0.000216277	
-0.18294157	-0.000205953	
-0.18208336	-0.000186339	
-0.18131699	-0.000175705	
-0.18056856	-0.000163008	
-0.17985708	-0.000158259	
-0.17911604	-0.000150413	
-0.17846684	-0.00014618	
-0.17805093	-0.00013627	
-0.17762235	-0.00013658	
-0.17714838	-0.00012863	
-0.17662057	-0.000119959	
-0.17624266	-0.000116449	
-0.17590064	-0.000114178	
-0.17565363	-0.000110668	
-0.17533378	-0.000105919	
-0.1748482	-9.8176e-005	
-0.17441751	-9.9312e-005	
-0.17401005	-9.5286e-005	
-0.17357408	-8.2175e-005	
-0.17309906	-8.2897e-005	
-0.17264514	-7.3606e-005	
-0.17207406	-7.309e-005	
-0.17152514	-5.6676e-005	
-0.17086855	-5.3889e-005	
-0.16996178	-4.1397e-005	
-0.16866972	-3.541e-005	
-0.16723303	-3.0248e-005	
-0.16614471	-2.2505e-005	
-0.16505743	-1.7963e-005	
-0.16412321	-6.297e-006	
-0.16290609	-6.607e-006	
-0.16148947	-8.26e-007	
-0.15981632	-2.891e-006	
-0.15831208	-2.06e-007	
-0.15701473	9.29e-007	
-0.15575538	4.13e-007	
-0.15456676	4.13e-007	
-0.15364311	1.342e-006	
-0.15248299	3.097e-006	
-0.15120148	4.13e-007	
-0.15038338	-9.29e-007	
-0.14920426	7.433e-006	
-0.14789953	4.542e-006	
-0.1466043	3.304e-006	
-0.14556874	3.716e-006	
-0.1443569	7.226e-006	
-0.14320101	7.02e-006	
-0.14207467	7.433e-006	
-0.14092195	5.471e-006	
-0.1399434	6.297e-006	
-0.13895324	1.0117e-005	
-0.13784801	7.743e-006	
-0.13656967	1.0943e-005	
-0.1353367	4.233e-006	
-0.13377124	5.162e-006	
-0.13205376	5.781e-006	
-0.13023177	5.781e-006	
-0.12830001	7.02e-006	
-0.12623101	8.156e-006	
-0.12442802	8.156e-006	
-0.12245403	9.291e-006	
-0.11983928	1.6518e-005	
-0.11743777	4.955e-006	
-0.11465097	1.4866e-005	
-0.11224418	1.2801e-005	
-0.1102248	4.13e-007	
-0.10789929	8.672e-006	
-0.10438833	7.123e-006	
-0.10187068	1.3008e-005	
-0.09854762	8.672e-006	
-0.09545257	8.465e-006	
-0.09184873	6.504e-006	
-0.0882871	1.1149e-005	
-0.08423144	6.607e-006	
-0.08147628	7.226e-006	
-0.07964902	7.949e-006	
-0.07746918	3.2e-006	
-0.07506239	4.233e-006	
-0.07257643	-2.891e-006	
-0.07011475	-6.194e-006	
-0.06741344	-1.4969e-005	
-0.06467941	-8.981e-006	
-0.06226523	-7.123e-006	
-0.06022262	-7.743e-006	
-0.05752448	-1.0943e-005	
-0.05460149	-7.123e-006	
-0.05158878	-2.065e-006	
-0.04921471	-7.743e-006	
-0.04732201	-1.0117e-005	
-0.04603416	-4.439e-006	
-0.04481599	-3.407e-006	
-0.0441499	-1.4969e-005	
-0.04412351	-6.917e-006	
-0.04411717	2.581e-006	
-0.04410873	-4.129e-006	
-0.04410239	-4.3978e-005	
-0.04410028	-6.401e-006	
-0.04409817	-1.7653e-005	
-0.04409606	-1.6105e-005	
-0.04409184	-9.29e-007	
-0.04409395	1.445e-006	
-0.04409395	1.239e-006	
-0.04409395	2.06e-007	
-0.04409184	5.471e-006	
-0.04409184	8.672e-006	
-0.0440855	2.891e-006	
-0.04408762	-1.3111e-005	
-0.04408656	-2.4467e-005	
-0.0440855	-7.02e-006	
-0.0440855	9.188e-006	
-0.0440855	4.852e-006	
-0.0440855	-5.988e-006	
-0.04408339	-1.652e-006	
-0.04408339	-8.362e-006	
-0.0440855	-3.923e-006	
-0.04408128	-5.368e-006	
-0.04408234	-1.652e-006	
-0.04408339	-3.407e-006	
-0.04408234	-5.678e-006	
-0.04408128	9.29e-007	
-0.04407917	-7.949e-006	
-0.04407917	-5.265e-006	
-0.04408128	-6.71e-006	
-0.04407917	-8.465e-006	
-0.04407917	-4.336e-006	
-0.04407917	6.607e-006	
-0.04407706	3.51e-006	
-0.04407706	-4.852e-006	
-0.04407706	-3.304e-006	
-0.04407706	2.06e-007	
-0.04407495	-9.188e-006	
-0.04407706	-7.743e-006	
-0.04407917	-2.994e-006	
-0.04407495	-2.787e-006	
-0.04407495	-4.542e-006	
-0.04407706	-8.362e-006	
-0.04407284	-5.471e-006	
-0.04407284	-7.23e-007	
-0.04407284	-7.949e-006	
-0.04407495	-9.085e-006	
-0.04407284	-3.716e-006	
-0.04407073	-7.846e-006	
-0.04407495	-1.0943e-005	
-0.04407178	-9.085e-006	
-0.04407073	-5.575e-006	
-0.04407284	1.961e-006	
-0.04407284	5.16e-007	
-0.04407495	-7.33e-006	
-0.04407495	-9.188e-006	
-0.04407495	-5.162e-006	
-0.04407073	-3.716e-006	
-0.04407284	-4.129e-006	
-0.04407073	-1.1459e-005	
-0.04407284	-1.2078e-005	
-0.04407073	-1.2182e-005	
-0.04407073	-9.601e-006	
-0.04407284	-3.716e-006	
-0.04407284	-7.33e-006	
-0.04407073	-2.06e-007	
-0.04406862	-3.304e-006	
-0.04407284	-2.168e-006	
-0.04407073	0	
-0.04407073	-1.3421e-005	
-0.04407073	-1.7343e-005	
-0.04407284	-1.3833e-005	
-0.04407073	-1.084e-005	
-0.04407073	-5.16e-007	
-0.04406862	2.891e-006	
-0.04406862	3.82e-006	
-0.04407284	8.052e-006	
-0.04407073	0	
-0.04407073	6.19e-007	
-0.04407073	5.781e-006	
-0.04407073	2.891e-006	
-0.04407284	-4.646e-006	
-0.04407073	-2.374e-006	
-0.04407073	-7.226e-006	
-0.04406862	-6.401e-006	
-0.04407073	-4.233e-006	
-0.0440665	-3.613e-006	
-0.04406862	-3.613e-006	
-0.0440665	-5.884e-006	
-0.04406967	2.891e-006	
-0.04406756	-4.852e-006	
-0.04406756	-4.542e-006	
-0.04406862	-1.022e-005	
-0.04406862	-9.704e-006	
-0.04406862	-6.607e-006	
-0.04406862	-3.2e-006	
-0.04406967	-1.0736e-005	
-0.04406862	-6.71e-006	
-0.04407073	-4.336e-006	
-0.04406862	-6.813e-006	
-0.0440665	-8.259e-006	
-0.0440665	-8.465e-006	
-0.04406862	-3.407e-006	
-0.0440665	-5.265e-006	
-0.0440665	-6.607e-006	
-0.0440665	-4.13e-007	
-0.0440665	-3.51e-006	
-0.0440665	-3.923e-006	
-0.04406545	1.03e-007	
-0.0440665	-3.82e-006	
-0.0440665	-3.1e-007	
-0.0440665	0	
-0.04406862	9.29e-007	
-0.0440665	2.374e-006	
-0.0440665	1.549e-006	
-0.0440665	-7.433e-006	
-0.0440665	-7.33e-006	
-0.04406545	-7.433e-006	
-0.0440665	5.162e-006	
-0.0440665	1.03e-007	
-0.04406862	-4.749e-006	
-0.0440665	-7.226e-006	
-0.0440665	-4.026e-006	
-0.0440665	-7.123e-006	
-0.0440665	-6.401e-006	
-0.04406439	-8.672e-006	
-0.04406439	-9.601e-006	
-0.0440665	-3.097e-006	
-0.04406439	-8.156e-006	
-0.0440665	-8.465e-006	
-0.0440665	-4.439e-006	
-0.04406439	-5.059e-006	
-0.04406439	-7.33e-006	
-0.0440665	-6.091e-006	
-0.0440665	-1.0117e-005	
-0.04406439	-2.06e-007	
-0.04406439	-9.188e-006	
-0.0440665	-3.82e-006	
-0.0440665	-2.891e-006	
-0.04406439	-6.401e-006	
-0.04406439	1.032e-006	
-0.04406439	2.994e-006	
-0.04406439	-6.813e-006	
-0.04406439	1.239e-006	
-0.04406439	-2.065e-006	
-0.04406439	-5.162e-006	
-0.04406228	-4.955e-006	
-0.04406123	-7.639e-006	
-0.04406228	-4.026e-006	
-0.04406439	-5.884e-006	
-0.04406228	-5.059e-006	
-0.04406439	-7.536e-006	
-0.04406228	-1.0943e-005	
-0.04406439	-9.807e-006	
-0.04406017	-9.911e-006	
-0.04406228	-6.607e-006	
-0.04406439	-3.716e-006	
-0.04406228	-5.368e-006	
-0.04406228	-1.961e-006	
-0.04406228	6.19e-007	
-0.04406228	4.233e-006	
-0.04406228	1.239e-006	
-0.04406439	9.291e-006	
-0.04406439	1.03e-007	
-0.0440665	-7.639e-006	
-0.04406439	-2.994e-006	
-0.0440665	-8.568e-006	
-0.04406439	-4.955e-006	
-0.04406123	-2.891e-006	
-0.04406123	-7.743e-006	
-0.04406439	-1.0117e-005	
-0.04406228	-4.026e-006	
-0.04406228	-7.123e-006	
-0.04406228	-6.607e-006	
-0.04406439	-5.781e-006	
-0.04406439	-1.239e-006	
-0.04406439	-8.052e-006	
-0.04406439	-3.716e-006	
-0.04406334	-1.549e-006	
-0.04406228	-5.471e-006	
-0.04406439	-3.1e-007	
-0.04406439	-6.401e-006	
-0.04406228	1.032e-006	
-0.04406439	-8.981e-006	
-0.04406228	-8.465e-006	
-0.04406439	-6.813e-006	
-0.04406228	-7.743e-006	
-0.04406228	-4.542e-006	
-0.04406228	-6.71e-006	
-0.04406228	-4.233e-006	
-0.0440665	-6.091e-006	
-0.04406228	-4.542e-006	
-0.04405911	-3.097e-006	
-0.04406228	-1.239e-006	
-0.04406439	3.716e-006	
-0.04406228	-1.445e-006	
-0.04406439	-7.949e-006	
-0.04406439	-4.646e-006	
-0.04406123	-7.846e-006	
-0.04406123	-4.955e-006	
-0.04406017	-3.716e-006	
-0.04406228	1.342e-006	
-0.04406439	-4.852e-006	
-0.04406228	-7.536e-006	
-0.04406334	-6.504e-006	
-0.04406017	-7.846e-006	
-0.04406228	-2.374e-006	
-0.04406439	-6.401e-006	
-0.04406228	-1.032e-006	
-0.04406228	-6.297e-006	
-0.04406228	-2.271e-006	
-0.04406228	-2.271e-006	
-0.04406228	-7.639e-006	
-0.04406017	-6.401e-006	
-0.04406228	-4.749e-006	
-0.04406017	-7.743e-006	
-0.04406017	-4.955e-006	
-0.04406228	-4.646e-006	
-0.04406017	-1.0323e-005	
-0.04406017	-5.471e-006	
-0.04406017	-3.2e-006	
-0.04406228	-7.23e-007	
-0.04406123	-5.368e-006	
-0.04406228	-4.439e-006	
-0.04406017	-4.129e-006	
-0.04406439	-4.955e-006	
-0.04405911	-8.981e-006	
-0.04406017	-9.704e-006	
-0.04406017	-1.2698e-005	
-0.04406017	-2.994e-006	
-0.04406228	-1.5485e-005	
-0.04406017	-1.6518e-005	
-0.04406017	4.749e-006	
-0.04406017	-4.336e-006	
-0.04406017	-2.684e-006	
-0.04406017	-5.678e-006	
-0.04406017	-5.471e-006	
-0.04406017	-4.129e-006	
-0.04406017	-3.304e-006	
-0.04406439	-3.407e-006	
-0.04406228	-4.542e-006	
-0.04406017	-1.239e-006	
-0.04406228	-4.336e-006	
-0.04405806	-9.085e-006	
-0.04406017	-1.2078e-005	
-0.04406017	-1.404e-005	
-0.04406017	-1.5898e-005	
-0.04406228	-8.672e-006	
-0.04405806	-6.504e-006	
-0.04406228	1.961e-006	
-0.04406017	5.265e-006	
-0.04406017	-2.065e-006	
-0.04406017	2.06e-007	
-0.04406017	2.684e-006	
-0.04406017	-4.439e-006	
-0.04406017	-8.672e-006	
-0.04405806	-7.949e-006	
-0.04406017	1.858e-006	
-0.04406017	-4.852e-006	
-0.04406123	-5.781e-006	
-0.04406017	-2.065e-006	
-0.04406017	-2.374e-006	
-0.04406228	-3.2e-006	
-0.04406017	-1.4763e-005	
-0.04406228	-2.0647e-005	
-0.04405806	-1.0633e-005	
-0.04405911	1.755e-006	
-0.04406123	2.271e-006	
-0.04406017	1.1666e-005	
-0.04406017	6.401e-006	
-0.04406123	-1.652e-006	
-0.04405806	-2.8596e-005	
-0.04406017	-2.9628e-005	
-0.04405806	-2.9422e-005	
-0.04405806	-2.8596e-005	
-0.04405806	-1.4453e-005	
-0.04405806	-2.0131e-005	
-0.04406017	-7.949e-006	
-0.04406017	-1.2595e-005	
-0.04406017	-5.781e-006	
-0.04406017	-1.9511e-005	
-0.04390183	0.000877805	
-0.04405911	-2.0647e-005	
-0.04406228	3.097e-006	
-0.0440665	-5.471e-006	
-0.0440665	-3.716e-006	
-0.04568053	7.846e-006	
-0.05305608	1.9511e-005	
-0.06281626	2.06e-007	
-0.07496317	-5.8741e-005	
-0.08832088	-1.7447e-005	
-0.10287984	-1.2904e-005	
-0.11782412	-0.000116862	
-0.13406047	4.6352e-005	
-0.15104103	0.000195939	
-0.16913207	-9.8486e-005	
-0.18522169	-0.00179928	
-0.20061461	-0.001056919	
-0.21527069	-3.7577e-005	
-0.23166325	-2.395e-005	
-0.24753961	-0.000105816	
-0.26276784	-0.000109429	
-0.2778335	-7.6497e-005	
-0.2926722	-7.0922e-005	
-0.3064289	-5.2856e-005	
-0.31957018	-5.5953e-005	
-0.33318543	-5.884e-006	
-0.34565743	-2.044e-005	
-0.35780222	-9.085e-006	
-0.36833508	1.6311e-005	
-0.37760121	3.6648e-005	
-0.38830509	9.704e-006	
-0.3985297	-1.4866e-005	
-0.40606887	-1.755e-005	
-0.41408515	-2.994e-006	
-0.41875412	1.3214e-005	
-0.42323835	1.5485e-005	
-0.42663002	2.06e-007	
-0.42832744	-0.00110771	
-0.42925321	-0.001933898	
-0.42935874	-0.001872989	
-0.42934819	-0.001724331	
-0.42932285	-0.001831902	
-0.42932285	-0.001530869	
-0.42929857	-0.001445185	
-0.4292933	-0.001750346	
-0.4304703	-0.001888887	
-0.43155125	-0.00110771	
-0.43159347	-0.001320683	
-0.43157658	-0.001438371	
-0.43156391	-0.001516313	
-0.43155758	-0.001632968	
-0.43154702	-0.001686238	
-0.43157869	-0.001656919	
-0.43151219	-0.002144085	
-0.43146891	-0.002044877	
-0.43145624	-0.001683863	
-0.43144569	-0.001655061	
-0.43142035	-0.001698419	
-0.43139502	-0.002213975	
-0.43200727	-0.000832175	
-0.43476664	-5.5953e-005	
-0.4369148	-2.478e-006	
-0.4385795	-3.716e-006	
-0.44040885	-6.504e-006	
-0.44241345	-4.3772e-005	
-0.4431091	-1.2388e-005	
-0.44322311	-8.568e-006	
-0.44316399	-1.4659e-005	
-0.44314183	-1.6621e-005	
-0.44311755	-1.8273e-005	
-0.44311332	-7.846e-006	
-0.4431091	-1.1253e-005	
-0.44310699	-2.5293e-005	
-0.44310066	-3.2829e-005	
-0.44309855	-3.5203e-005	
-0.44309855	-2.3331e-005	
-0.4430711	-0.000102099	
-0.44306688	-6.2663e-005	
-0.44305632	-2.1576e-005	
-0.44306477	-2.0544e-005	
-0.44305632	-2.395e-005	
-0.44305632	-1.693e-005	
-0.44305315	-6.504e-006	
-0.44305632	2.374e-006	
-0.44305843	-2.374e-006	
-0.4430521	-2.787e-006	
-0.4430521	-6.401e-006	
-0.4430521	-9.188e-006	
-0.4430521	-8.981e-006	
-0.44304788	-1.445e-006	
-0.44304999	-3.4997e-005	
-0.4430521	3.9642e-005	
-0.44305421	9.9312e-005	
-0.4430521	1.9305e-005	
-0.44304577	-1.0633e-005	
-0.44304788	2.891e-006	
-0.44304049	-8.465e-006	
-0.44304577	-6.607e-006	
-0.44304577	-1.022e-005	
-0.44304577	-5.575e-006	
-0.44304788	-4.0468e-005	
-0.4430521	-3.0041e-005	
-0.44303732	-2.9319e-005	
-0.44303943	-2.4157e-005	
-0.44303732	-2.1473e-005	
-0.44304154	-1.3008e-005	
-0.44304154	-1.5588e-005	
-0.44304365	-9.498e-006	
-0.44303943	-2.8802e-005	
-0.44303943	-2.4363e-005	
-0.4430331	-2.5189e-005	
-0.44303415	-2.5912e-005	
-0.44303626	-1.3421e-005	
-0.44309221	0.000167343	
-0.44303521	-1.1872e-005	
-0.44306054	0.000106951	
-0.44303204	9.29e-007	
-0.44300987	-9.911e-006	
-0.44301093	-1.1046e-005	
-0.44300354	-3.51e-006	
-0.44292754	-1.6208e-005	
-0.44049752	-0.000991055	
-0.43642711	-0.000120888	
-0.43116912	-1.724e-005	
-0.42544352	-1.8789e-005	
-0.41901802	-1.8169e-005	
-0.41375686	-1.755e-005	
-0.40559279	4.852e-006	
-0.39905328	3.2e-006	
-0.39099584	-9.601e-006	
-0.38180676	-1.755e-005	
-0.37193682	-6.607e-006	
-0.36324389	-1.0633e-005	
-0.3528303	-9.291e-006	
-0.34344594	-5.471e-006	
-0.33467068	-3.9952e-005	
-0.32408924	-5.0998e-005	
-0.31447158	-3.7061e-005	
-0.30309108	-2.457e-005	
-0.29142975	-2.0131e-005	
-0.27845315	-1.2285e-005	
-0.26434386	-1.022e-005	
-0.25024831	-1.5898e-005	
-0.23589519	-2.137e-005	
-0.22063002	-0.000104474	
-0.20672342	-0.003803893	
-0.19422709	-0.001157469	
-0.18273467	-0.000181177	
-0.17241291	-7.371e-005	
-0.16148735	-6.607e-006	
-0.15066417	-6.813e-006	
-0.14051132	1.9098e-005	
-0.13219732	1.1872e-005	
-0.12563565	8.259e-006	
-0.11987306	2.684e-006	
-0.11618054	2.746e-005	
-0.11342329	1.053e-005	
-0.11251125	-6.194e-006	
-0.11135324	3.3345e-005	
-0.1080893	-5.471e-006	
-0.10344565	-9.29e-007	
-0.09999169	-1.1666e-005	
-0.0960986	-5.162e-006	
-0.09084906	-1.8066e-005	
-0.08521316	-9.394e-006	
-0.08044073	-1.5072e-005	
-0.07582771	-4.4494e-005	
-0.07252365	-0.000128114	
-0.0703966	1.5898e-005	
-0.06964395	2.065e-006	
-0.06957005	1.239e-006	
-0.06954789	1.404e-005	
-0.06953416	1.5588e-005	
-0.06952783	1.8273e-005	
-0.06951938	2.3125e-005	
-0.06951727	1.5898e-005	
-0.06951305	1.4659e-005	
-0.06950461	9.394e-006	
-0.06950461	1.032e-006	
-0.06949827	-1.755e-005	
-0.06949616	-2.5396e-005	
-0.06949616	2.994e-006	
-0.06949405	3.613e-006	
-0.06949194	7.02e-006	
-0.06949088	-2.478e-006	
-0.06948983	1.445e-006	
-0.06948666	3.097e-006	
-0.06948349	9.291e-006	
-0.06948349	6.813e-006	
-0.06948138	7.536e-006	
-0.06947822	-4.13e-007	
-0.06947505	-4.336e-006	
-0.06947505	7.433e-006	
-0.06947294	2.581e-006	
-0.06947083	5.162e-006	
-0.06947294	-9.704e-006	
-0.06947083	-2.891e-006	
-0.06947083	2.168e-006	
-0.06947083	6.607e-006	
-0.06946872	-7.433e-006	
-0.06946872	-8.465e-006	
-0.06946449	-8.465e-006	
-0.06946449	-2.065e-006	
-0.06946872	-1.961e-006	
-0.06946449	-1.6311e-005	
-0.06946238	-1.373e-005	
-0.06946238	-2.7357e-005	
-0.06946238	-3.6752e-005	
-0.06946449	-1.9718e-005	
-0.06945394	2.2299e-005	
-0.06946238	2.6841e-005	
-0.06947294	-2.1163e-005	
-0.06946027	-2.065e-006	
-0.06946238	4.1913e-005	
-0.06946027	-3.923e-006	
-0.06878046	2.1783e-005	
-0.06666502	2.065e-006	
-0.0657403	3.3655e-005	
-0.06496337	1.445e-006	
-0.06487681	1.3008e-005	
-0.06502987	2.3641e-005	
-0.06503304	2.478e-006	
-0.06503093	4.749e-006	
-0.06503093	8.259e-006	
-0.06573186	1.053e-005	
-0.06704398	2.7151e-005	
-0.06948983	-9.807e-006	
-0.07158521	-3.1e-007	
-0.0732098	1.9718e-005	
-0.07489561	7.433e-006	
-0.07614651	3.716e-006	
-0.07741852	-4.13e-007	
-0.07883409	-4.852e-006	
-0.0804819	-8.26e-007	
-0.0815734	4.13e-007	
-0.08302064	3.097e-006	
-0.08479725	-8.465e-006	
-0.08654217	-2.06e-007	
-0.08835993	1.342e-006	
-0.09067383	4.336e-006	
-0.0923892	-1.032e-006	
-0.09421434	-3.097e-006	
-0.09579036	-1.652e-006	
-0.09736006	1.342e-006	
-0.09874818	-1.755e-006	
-0.10015953	-4.13e-007	
-0.10174295	2.168e-006	
-0.10337598	-5.16e-007	
-0.10541544	1.136e-006	
-0.10706536	1.652e-006	
-0.10891373	-2.06e-007	
-0.11069454	-5.16e-007	
-0.11282371	4.749e-006	
-0.11547222	3.097e-006	
-0.11836987	-7.7632e-005	
-0.12146387	-0.000425533	
-0.12515428	0.000103854	
-0.12914766	0.000183551	
-0.13333421	0.000129972	
-0.13768861	3.6648e-005	
-0.14182555	7.23e-007	
-0.14564686	3.2e-006	
-0.14878835	2.891e-006	
-0.15115503	-3.097e-006	
-0.15373811	-1.6311e-005	
-0.15675717	-3.2519e-005	
-0.15946481	-5.1617e-005	
-0.16216506	-8.2072e-005	
-0.16443567	-9.3944e-005	
-0.16606237	-0.000110358	
-0.16782206	-0.000119649	
-0.16909301	-0.000137096	
-0.1705392	-0.000153923	
-0.1718566	-0.000176118	
-0.17290905	-0.000205231	
-0.17397838	-0.000237543	
-0.17537178	-0.00030031	
-0.17642845	-0.000388885	
-0.17805938	-0.00050936	
-0.17967552	-0.000697454	
-0.18187013	-0.000999004	
-0.18424631	-0.001457882	
-0.18631953	-0.002250624	
-0.18925939	-0.003337479	
-0.19231221	-0.004170378	
-0.19586751	-0.003844877	
-0.19941649	-0.002127981	
-0.2029739	-0.000667412	
-0.20716678	-0.000151755	
-0.21022593	-3.4171e-005	
-0.21292196	-6.504e-006	
-0.21519152	1.239e-006	
-0.21774293	2.478e-006	
-0.22064058	-6.401e-006	
-0.2227613	-1.2801e-005	
-0.22495274	-1.1356e-005	
-0.22785884	-3.097e-006	
-0.23073642	5.988e-006	
-0.23312105	6.19e-007	
-0.23576852	-5.368e-006	
-0.23842126	8.26e-007	
-0.24126085	-5.988e-006	
-0.24394104	-5.575e-006	
-0.24727677	6.091e-006	
-0.25011636	1.5588e-005	
-0.2536801	6.297e-006	
-0.25783287	2.891e-006	
-0.26259683	-3.407e-006	
-0.26677282	-1.053e-005	
-0.27175636	-2.478e-006	
-0.27710513	1.652e-006	
-0.28113651	1.2182e-005	
-0.28519215	1.1459e-005	
-0.29148042	1.8582e-005	
-0.29719549	2.1886e-005	
-0.30201963	1.1046e-005	
-0.30791203	-2.374e-006	
-0.31294201	-1.8995e-005	
-0.31794665	-3.1177e-005	
-0.32225354	-3.5616e-005	
-0.32631552	-5.3063e-005	
-0.32996794	-4.4701e-005	
-0.33375863	-4.2946e-005	
-0.33755036	-3.3551e-005	
-0.33819428	0.002007502	
-0.34459973	-6.917e-006	
-0.35000549	-3.2e-006	
-0.35319871	-1.755e-006	
-0.35748132	-2.1783e-005	
-0.36212706	-3.407e-006	
-0.36658171	-1.1872e-005	
-0.37057297	8.052e-006	
-0.37488831	-1.7756e-005	
-0.38036796	-1.4246e-005	
-0.38511504	-5.4611e-005	
-0.38856266	-8.6407e-005	
-0.3917126	-4.0158e-005	
-0.39374887	-1.8169e-005	
-0.39403389	0.000174054	
-0.39396633	1.239e-006	
-0.39390933	4.129e-006	
-0.39386499	2.8183e-005	
-0.3938481	1.9615e-005	
-0.3937911	2.839e-005	
-0.39367709	-5.471e-006	
-0.39367287	-3.82e-006	
-0.3959836	-6.813e-006	
-0.39852653	6.71e-006	
-0.40078554	-1.03e-007	
-0.40200794	5.162e-006	
-0.40323561	-6.917e-006	
-0.40503437	-5.988e-006	
-0.40636233	-1.652e-006	
-0.4076544	-2.168e-006	
-0.40971493	-4.955e-006	
-0.41196654	-6.194e-006	
-0.41392048	-9.807e-006	
-0.41520093	-1.3317e-005	
-0.41640749	-9.601e-006	
-0.41741032	-1.3524e-005	
-0.41837832	-1.404e-005	
-0.4192967	-7.536e-006	
-0.42008313	-1.435e-005	
-0.42122741	-2.684e-006	
-0.42263454	-2.168e-006	
-0.42386221	2.065e-006	
-0.42506561	-1.342e-006	
-0.42581192	-1.9511e-005	
-0.42637984	-2.0544e-005	
-0.42716099	-3.6855e-005	
-0.42783975	-0.000318479	
-0.42835067	-0.000933242	
-0.42894181	-0.001465212	
-0.4295952	-0.00171824	
-0.43049141	-0.001528392	
-0.43117545	-0.001199486	
-0.43178137	-0.000751032	
-0.43226062	-0.000709326	
-0.43265647	-0.000800172	
-0.43278103	-0.000827116	
-0.43278314	-0.000817722	
-0.43290137	-0.000845182	
-0.43303543	-0.000872953	
-0.43304071	-0.000924983	
-0.43304282	-0.000936648	
-0.43304071	-0.000968135	
-0.43312727	-0.000990849	
-0.43314416	-0.001039988	
-0.43322017	-0.001027497	
-0.4332455	-0.001044427	
-0.43323706	-0.001082108	
-0.4332265	-0.001172542	
-0.43324339	-0.000902684	
-0.43324339	-0.001008605	
-0.43324233	-0.000997146	
-0.43323494	-0.001020167	
-0.43323283	-0.00101418	
-0.43323494	-0.001011496	
-0.43323072	-0.001016038	
-0.43323072	-0.001022955	
-0.43323494	-0.001037407	
-0.43323283	-0.001039472	
-0.43323494	-0.001043189	
-0.43323283	-0.001033278	
-0.43323072	-0.001026465	
-0.43330884	0.000470028	
-0.4332265	-0.001199899	
-0.43322017	-0.001080147	
-0.43321594	-0.001037304	
-0.43321383	-0.00099312	
-0.43321806	-0.000962973	
-0.43321383	-0.000929835	
-0.43321594	-0.000939745	
-0.43321172	-0.000953476	
-0.43320961	-0.000977323	
-0.43320961	-0.001019032	
-0.43321172	-0.001030078	
-0.4332075	-0.001032555	
-0.4332075	-0.001026671	
-0.43320961	-0.001001172	
-0.4332075	-0.000978665	
-0.43321172	-0.000943359	
-0.43320961	-0.000940778	
-0.4332075	-0.000936132	
-0.4332075	-0.000939745	
-0.4332075	-0.000946352	
-0.43320328	-0.000971232	
-0.43320539	-0.00100365	
-0.4332075	-0.001010773	
-0.43320539	-0.001015212	
-0.43320539	-0.001009328	
-0.43320328	-0.000994668	
-0.43320539	-0.000981762	
-0.43320222	-0.000951101	
-0.43320222	-0.000953579	
-0.43320117	-0.000963386	
-0.43320011	-0.000963902	
-0.4332075	-0.000975568	
-0.43320328	-0.000988474	
-0.43320222	-0.001012631	
-0.43320328	-0.000999314	
-0.43319905	-0.000984035	
-0.43320328	-0.000971232	
-0.43320117	-0.00095905	
-0.43319905	-0.000958637	
-0.43319905	-0.000956882	
-0.43320117	-0.000970613	
-0.43320117	-0.000992913	
-0.43319905	-0.001001069	
-0.43319905	-0.001025329	
-0.43319483	-0.001017173	
-0.43319694	-0.000978252	
-0.43319694	-0.000979801	
-0.43319905	-0.000967619	
-0.43319905	-0.000958844	
-0.43319694	-0.000968341	
-0.43319905	-0.000973813	
-0.43319589	-0.00099281	
-0.43319694	-0.001003134	
-0.43319483	-0.001005611	
-0.43319694	-0.001000243	
-0.43319694	-0.000988784	
-0.43319694	-0.000972264	
-0.43319483	-0.000970096	
-0.43319483	-0.000967103	
-0.43319694	-0.000987855	
-0.43319694	-0.000999314	
-0.43319483	-0.001002514	
-0.43319272	-0.001000759	
-0.43319483	-0.000997559	
-0.43319483	-0.000984861	
-0.43319483	-0.000978458	
-0.43319272	-0.000967722	
-0.43319483	-0.000967309	
-0.43319483	-0.000967722	
-0.4331885	-0.000970096	
-0.43319272	-0.000986822	
-0.43319272	-0.000988268	
-0.43319061	-0.000977633	
-0.43319694	-0.0009734	
-0.43319483	-0.000961322	
-0.43319694	-0.000956263	
-0.43319694	-0.000948107	
-0.43319272	-0.000946456	
-0.43319272	-0.000942223	
-0.43319694	-0.000947488	
-0.43319272	-0.000972677	
-0.43319483	-0.000972781	
-0.43319272	-0.000978665	
-0.43319166	-0.000992604	
-0.43319272	-0.001001482	
-0.43319061	-0.001006024	
-0.43318428	-0.001003753	
-0.4331885	-0.000982072	
-0.43319061	-0.000963489	
-0.4331885	-0.000942636	
-0.43319272	-0.000939333	
-0.43319483	-0.000937474	
-0.43319272	-0.000965451	
-0.43319061	-0.000984448	
-0.43319061	-0.000972574	
-0.43319272	-0.000979284	
-0.4331885	-0.000991984	
-0.4331885	-0.000982691	
-0.4331885	-0.000973503	
-0.4331885	-0.000966277	
-0.43319061	-0.000967722	
-0.43319061	-0.000963076	
-0.43318533	-0.000977942	
-0.4331885	-0.000992397	
-0.43318639	-0.000988474	
-0.4331885	-0.000993223	
-0.43318639	-0.000981865	
-0.43318428	-0.000976291	
-0.4331885	-0.000983622	
-0.43318428	-0.000979181	
-0.43318216	-0.000973916	
-0.43318639	-0.000972058	
-0.43318639	-0.000979697	
-0.4331885	-0.000984551	
-0.43318428	-0.000980936	
-0.43318428	-0.000977633	
-0.43318744	-0.000974639	
-0.43318428	-0.000985687	
-0.43318744	-0.000981556	
-0.43318639	-0.000969374	
-0.43318428	-0.00098992	
-0.43311883	-0.00095616	
-0.43310194	-0.002109089	
-0.43305971	-7.8355e-005	
-0.43297738	-2.06e-007	
-0.43285493	-5.575e-006	
-0.43246013	1.3317e-005	
-0.43241579	2.3744e-005	
-0.43231023	-2.271e-006	
-0.43229651	-4.542e-006	
-0.43227223	3.6029e-005	
-0.43227012	-1.961e-006	
-0.43225428	-2.065e-006	
-0.43225745	-5.368e-006	
-0.43225217	-1.373e-005	
-0.43225956	-1.7137e-005	
-0.43226167	-2.0234e-005	
-0.43226378	-5.7295e-005	
-0.43227012	-0.000412629	
-0.43227012	-0.0010659	
-0.43227645	-0.001680456	
-0.4322849	-0.002154099	
-0.43243479	-0.002071099	
-0.43256147	-0.001828908	
-0.43261952	-0.001358054	
-0.43266069	-0.000883379	
-0.43270081	-0.0008234	
-0.43280848	-0.000970613	
-0.43328773	-0.000918892	
-0.43383981	-0.000615072	
-0.43419027	-0.000371955	
-0.43436656	-0.000234756	
-0.43461463	-9.2085e-005	
-0.43502843	-2.6841e-005	
-0.43568502	-2.0131e-005	
-0.43638066	-1.5176e-005	
-0.43707737	-1.373e-005	
-0.43760834	-1.239e-006	
-0.43799997	3.1487e-005	
-0.43848872	-3.2e-006	
-0.43894896	-7.433e-006	
-0.43937015	-7.226e-006	
-0.43998238	-2.1886e-005	
-0.44051652	-3.8713e-005	
-0.44118895	-2.2918e-005	
-0.44168508	-6.917e-006	
-0.44198699	-1.5588e-005	
-0.44215377	-4.646e-006	
-0.44228889	-7.433e-006	
-0.44243034	-7.536e-006	
-0.44259291	-1.1562e-005	
-0.44301621	-2.1576e-005	
-0.44356724	-1.7756e-005	
-0.44390714	-6.917e-006	
-0.4442386	-5.988e-006	
-0.44450251	-7.226e-006	
-0.44467879	-3.716e-006	
-0.4448403	-5.884e-006	
-0.44488992	-3.6442e-005	
-0.44507148	-1.404e-005	
-0.44522138	4.646e-006	
-0.44543039	-1.6414e-005	
-0.44542405	-1.2285e-005	
-0.44541772	-2.7357e-005	
-0.44541139	2.0337e-005	
-0.44536705	-1.5072e-005	
-0.44535227	-4.5527e-005	
-0.44535861	-5.162e-006	
-0.44533538	-2.5293e-005	
-0.44530794	-4.5733e-005	
-0.44528471	-6.3076e-005	
-0.44527838	-4.501e-005	
-0.44528471	2.808e-005	
-0.44524671	-1.1975e-005	
-0.44521927	-1.1872e-005	
-0.44518549	-1.9202e-005	
-0.44515804	-1.9408e-005	
-0.44510526	-8.052e-006	
-0.4450757	-6.504e-006	
-0.44507148	-8.878e-006	
-0.44506092	-3.613e-006	
-0.44503981	-1.1666e-005	
-0.4446978	-1.1666e-005	
-0.44258869	-5.3785e-005	
-0.44076565	-0.00090382	
-0.43951371	-0.00119164	
-0.43827971	-0.002020305	
-0.43743838	-0.001270615	
-0.43685252	-0.000605988	
-0.43657701	-0.000266346	
-0.43645561	-0.000190468	
-0.43643344	-0.000190365	
-0.436368	-0.000145561	
-0.43629833	-8.5788e-005	
-0.43620965	-6.091e-006	
-0.43598375	-3.0454e-005	
-0.43565229	-1.373e-005	
-0.43512765	-4.852e-006	
-0.43438873	-8.568e-006	
-0.43354952	-5.471e-006	
-0.43285704	-7.02e-006	
-0.43214028	-1.053e-005	
-0.4312599	-9.498e-006	
-0.43028979	-6.813e-006	
-0.42854912	-1.053e-005	
-0.42654874	-4.129e-006	
-0.42477426	-4.955e-006	
-0.42277282	-8.259e-006	
-0.42078828	-3.1e-007	
-0.41926714	-2.994e-006	
-0.41788535	-1.858e-006	
-0.4170852	1.755e-006	
-0.41694586	-4.439e-006	
-0.4169543	4.13e-007	
-0.4169543	1.652e-006	
-0.41695641	6.19e-007	
-0.41695324	4.749e-006	
-0.41694797	-6.194e-006	
-0.41694797	-2.06e-007	
-0.41695219	5.471e-006	
-0.41695641	6.504e-006	
-0.4168973	5.988e-006	
-0.41665662	-1.445e-006	
-0.41625021	4.955e-006	
-0.41580052	-8.259e-006	
-0.41554295	-3.82e-006	
-0.41550389	-1.858e-006	
-0.4154965	-1.858e-006	
-0.41548806	-2.065e-006	
-0.41547961	-2.168e-006	
-0.41548806	2.065e-006	
-0.4154965	-7.23e-007	
-0.4154965	-7.949e-006	
-0.41550284	-5.988e-006	
-0.41551339	-7.743e-006	
-0.41552606	-1.549e-006	
-0.41554717	-5.781e-006	
-0.41558095	-5.059e-006	
-0.41562106	-6.917e-006	
-0.41571185	1.858e-006	
-0.4157414	2.891e-006	
-0.41587019	-2.0957e-005	
-0.4161362	-1.3937e-005	
-0.41632727	5.265e-006	
-0.41738288	2.8802e-005	
-0.41851766	-8.672e-006	
-0.41949938	-2.065e-006	
-0.4205096	8.26e-007	
-0.42198006	-8.981e-006	
-0.42339352	-1.5692e-005	
-0.42554591	-6.607e-006	
-0.42676831	-1.9615e-005	
-0.4279622	-0.000535995	
-0.42918777	-0.001885893	
-0.43033941	-0.001916657	
-0.43134224	-0.001325432	
-0.43234401	-0.000841776	
-0.43342073	-0.000831762	
-0.43419238	-0.000337371	
-0.43514877	-2.137e-005	
-0.43570613	-1.8169e-005	
-0.43573146	-5.585e-005	
-0.43568818	-4.2533e-005	
-0.43567024	-6.1425e-005	
-0.4356639	-3.0041e-005	
-0.43565335	-2.488e-005	
-0.43565229	-2.5293e-005	
-0.43564807	-2.746e-005	
-0.4356449	-5.4921e-005	
-0.43563751	-5.585e-005	
-0.43563857	-3.6132e-005	
-0.43563435	-3.7474e-005	
-0.43563329	-3.4893e-005	
-0.43563012	-2.9938e-005	
-0.43563118	-3.3964e-005	
-0.43562907	-3.5616e-005	
-0.43562801	-3.5203e-005	
-0.43562379	-3.7268e-005	
-0.43562062	-2.9112e-005	
-0.43562379	-2.994e-006	
-0.43562696	-2.2092e-005	
-0.43561429	-0.000113661	
-0.43561429	-9.4769e-005	
-0.4356164	-3.097e-005	
-0.43562062	-6.19e-007	
-0.4356164	-6.5657e-005	
-0.43561535	-6.989e-005	
-0.43561112	-6.7619e-005	
-0.43561323	-5.1101e-005	
-0.43561429	-1.032e-006	
-0.43561323	-3.0661e-005	
-0.43561007	-2.2815e-005	
-0.43561007	-3.3964e-005	
-0.43561112	-3.861e-005	
-0.43560479	-0.000145664	
-0.43560057	-0.000191294	
-0.43561746	0.000123262	
-0.43561007	-4.7385e-005	
-0.43560901	-0.000103028	
-0.43561007	-1.032e-006	
-0.43561112	3.923e-006	
-0.43561323	-6.091e-006	
-0.43560479	-1.1356e-005	
-0.43561112	-9.807e-006	
-0.43561429	-3.0661e-005	
-0.43560901	-1.9098e-005	
-0.43560479	-2.395e-005	
-0.43560373	-0.000110977	
-0.43559634	-0.00013307	
-0.43559846	-8.9814e-005	
-0.43560057	-6.607e-006	
-0.43560373	8.26e-007	
-0.43559634	-9.911e-006	
-0.43560373	-2.271e-006	
-0.43560162	-4.13e-007	
-0.43560796	1.6724e-005	
-0.43560057	2.0544e-005	
-0.43560162	-3.8507e-005	
-0.43559423	-8.3104e-005	
-0.43559318	-5.936e-005	
-0.43560268	5.2134e-005	
-0.43560585	2.9525e-005	
-0.43559634	-3.1074e-005	
-0.43560268	-3.8919e-005	
-0.43559634	-2.2815e-005	
-0.43560057	-2.5293e-005	
-0.43559634	-2.6738e-005	
-0.43560162	-3.4377e-005	
-0.4355974	-4.0158e-005	
-0.43559212	-3.9229e-005	
-0.43560162	-3.2725e-005	
-0.43559634	-2.9835e-005	
-0.43559634	-3.3964e-005	
-0.43559529	-3.2725e-005	
-0.43559107	-4.2842e-005	
-0.43559529	-3.6339e-005	
-0.43559529	-3.1074e-005	
-0.43559423	-2.6015e-005	
-0.43559001	-2.5912e-005	
-0.43559318	-2.9112e-005	
-0.43559212	-4.1191e-005	
-0.43559001	-4.3255e-005	
-0.43559423	-3.128e-005	
-0.43558368	-5.8121e-005	
-0.43559107	-4.7385e-005	
-0.43559107	-3.3242e-005	
-0.43560162	1.786e-005	
-0.43559107	-3.2312e-005	
-0.43559107	-4.0881e-005	
-0.43559001	-3.7268e-005	
-0.43559423	-3.2519e-005	
-0.4355879	-3.1487e-005	
-0.43559107	-3.541e-005	
-0.43559001	-3.4377e-005	
-0.43558896	-3.6442e-005	
-0.43558579	-3.2209e-005	
-0.43559107	-3.3138e-005	
-0.4355879	-3.2003e-005	
-0.43558896	-3.3448e-005	
-0.43559107	-3.2003e-005	
-0.43558684	-3.1177e-005	
-0.43559107	-3.2725e-005	
-0.43558157	-4.1913e-005	
-0.43558579	-4.4081e-005	
-0.43558473	-2.9525e-005	
-0.43558684	-2.8183e-005	
-0.43558473	-3.2725e-005	
-0.43558368	-5.1721e-005	
-0.43558368	-4.852e-005	
-0.43558368	-3.5203e-005	
-0.43558473	-3.8197e-005	
-0.43558579	-3.4997e-005	
-0.43558579	-4.1087e-005	
-0.43558579	-3.5616e-005	
-0.43558368	-3.5203e-005	
-0.43558157	-4.0571e-005	
-0.43558473	-2.5602e-005	
-0.43558157	-3.7268e-005	
-0.43558157	-4.3462e-005	
-0.43557945	-5.0585e-005	
-0.43557945	-4.9346e-005	
-0.43557945	-3.6132e-005	
-0.43558051	-3.3655e-005	
-0.43557945	-2.746e-005	
-0.43558157	-2.9732e-005	
-0.43558051	-3.128e-005	
-0.43557945	-3.0557e-005	
-0.43558157	-2.7873e-005	
-0.43558262	-3.5822e-005	
-0.43558157	-3.6442e-005	
-0.43557734	-3.5822e-005	
-0.43557945	-3.4171e-005	
-0.43558157	-3.4893e-005	
-0.43558262	-3.5203e-005	
-0.43557945	-3.8713e-005	
-0.43557945	-3.7371e-005	
-0.4355784	-3.541e-005	
-0.43558051	-3.2416e-005	
-0.43557734	-3.3242e-005	
-0.43558051	-3.5926e-005	
-0.43557523	-3.3551e-005	
-0.4355784	-2.9525e-005	
-0.4355784	-3.7887e-005	
-0.43558051	-3.9539e-005	
-0.43558051	-3.4584e-005	
-0.43557734	-3.6132e-005	
-0.4355784	-2.7254e-005	
-0.43557945	-2.9319e-005	
-0.43557734	-3.7474e-005	
-0.4355784	-3.9539e-005	
-0.43557734	-4.0365e-005	
-0.4355784	-3.9539e-005	
-0.43557945	-4.7385e-005	
-0.43558051	-3.3758e-005	
-0.43558262	-3.9539e-005	
-0.43557734	-2.4673e-005	
-0.43557523	-2.2815e-005	
-0.43557101	-8.0213e-005	
-0.43557312	-5.616e-005	
-0.43557734	-4.1294e-005	
-0.4355879	7.4535e-005	
-0.43557734	-3.3138e-005	
-0.43557312	-3.83e-005	
-0.43557629	-3.3448e-005	
-0.43557734	-3.3964e-005	
-0.43557734	-4.212e-005	
-0.43557418	-4.532e-005	
-0.43557523	-3.8094e-005	
-0.43557312	-3.8919e-005	
-0.43557101	-5.8844e-005	
-0.43557523	-4.3255e-005	
-0.43557523	-5.1411e-005	
-0.43557312	-2.5809e-005	
-0.43557523	-1.9615e-005	
-0.43557629	-1.9511e-005	
-0.4355784	-1.1459e-005	
-0.43557523	-3.479e-005	
-0.43557629	-3.097e-005	
-0.43557523	-3.1693e-005	
-0.43557629	-3.0867e-005	
-0.43557418	-2.137e-005	
-0.43557101	-3.2725e-005	
-0.43557734	-3.5822e-005	
-0.43557418	-3.2312e-005	
-0.43557629	-2.7254e-005	
-0.43557418	-2.7977e-005	
-0.43557523	-4.8107e-005	
-0.43557101	-4.2017e-005	
-0.43557312	-3.1796e-005	
-0.43557523	-3.2416e-005	
-0.43557312	-3.6648e-005	
-0.43557312	-3.9332e-005	
-0.43557101	-4.1604e-005	
-0.43557101	-3.479e-005	
-0.43557418	-3.0248e-005	
-0.43557312	-3.1074e-005	
-0.43557312	-2.6738e-005	
-0.43557312	-3.9642e-005	
-0.43557101	-3.2416e-005	
-0.43557312	-3.3345e-005	
-0.43557418	-3.7474e-005	
-0.43557101	-3.0454e-005	
-0.43557101	-3.0764e-005	
-0.43557312	-3.4893e-005	
-0.43557312	-2.457e-005	
-0.43557523	-3.1177e-005	
-0.43557312	-3.2519e-005	
-0.43557207	-5.5024e-005	
-0.43557207	-2.7564e-005	
-0.43557734	-1.5485e-005	
-0.4355689	-4.0674e-005	
-0.43557312	-3.9229e-005	
-0.4355689	-4.6765e-005	
-0.43556784	-7.6187e-005	
-0.43557101	-2.5293e-005	
-0.43556995	-4.6972e-005	
-0.43556573	-5.4301e-005	
-0.4355689	-4.563e-005	
-0.43556679	-6.7412e-005	
-0.43557101	-1.8995e-005	
-0.43556784	-1.2801e-005	
-0.4355784	6.1838e-005	
-0.43557101	-3.9332e-005	
-0.43557523	-1.6414e-005	
-0.43557101	-3.3551e-005	
-0.43556468	-7.5774e-005	
-0.43556151	-0.000123365	
-0.43556362	-7.1129e-005	
-0.4355689	-7.226e-006	
-0.43556679	-1.1666e-005	
-0.43557101	5.0791e-005	
-0.43557101	4.542e-006	
-0.4355689	-2.0028e-005	
-0.4355689	-2.777e-005	
-0.43556679	-4.5217e-005	
-0.43556573	-7.4948e-005	
-0.43556573	-4.2017e-005	
-0.43556573	-3.2003e-005	
-0.43556995	-4.7075e-005	
-0.43556995	-2.2299e-005	
-0.43556679	-5.1927e-005	
-0.43556257	-0.000117688	
-0.43556362	-4.9862e-005	
-0.4355689	5.234e-005	
-0.43556784	-9.394e-006	
-0.43556679	-2.1783e-005	
-0.43556468	-1.2801e-005	
-0.4355689	-5.162e-006	
-0.43556468	-3.8919e-005	
-0.43556468	-2.3434e-005	
-0.43556468	-3.2932e-005	
-0.43556151	-4.5527e-005	
-0.43556679	-3.3964e-005	
-0.43556468	-3.479e-005	
-0.43556468	-3.0248e-005	
-0.43556468	-2.1886e-005	
-0.43556468	-2.6531e-005	
-0.43556045	-3.3035e-005	
-0.43556257	-3.2725e-005	
-0.43556257	-3.4171e-005	
-0.43556362	-3.3964e-005	
-0.43556257	-3.0454e-005	
-0.43556679	-3.0454e-005	
-0.43556257	-3.4997e-005	
-0.43556468	-3.4171e-005	
-0.43556362	-2.8596e-005	
-0.43556679	-3.5616e-005	
-0.43556679	-3.7061e-005	
-0.43556257	-3.5926e-005	
-0.43556362	-4.3255e-005	
-0.43556257	-3.6029e-005	
-0.43556151	-2.9835e-005	
-0.43556362	-3.3551e-005	
-0.43556257	-2.9422e-005	
-0.43556151	-3.541e-005	
-0.43556151	-4.181e-005	
-0.43556362	-4.8107e-005	
-0.43556362	-2.8183e-005	
-0.43556257	-3.8816e-005	
-0.43555834	-3.7681e-005	
-0.43556257	-5.5747e-005	
-0.43556045	-4.7798e-005	
-0.43556257	-3.3345e-005	
-0.43555623	-4.5939e-005	
-0.43555201	-9.5389e-005	
-0.43556045	-3.861e-005	
-0.43555834	-5.1617e-005	
-0.43555412	-5.6573e-005	
-0.43555412	-9.4976e-005	
-0.43555729	-8.7956e-005	
-0.43555623	-7.4948e-005	
-0.43554884	-0.000108706	
-0.43554568	-0.000144735	
-0.43554779	-0.000144322	
-0.4355499	-9.0021e-005	
-0.43554462	-0.000171783	
-0.4355309	-0.000167447	
-0.43554145	-0.000137302	
-0.43554462	-0.000142154	
-0.43554356	-0.000159188	
-0.43554568	-0.000149794	
-0.43554779	-0.000150929	
-0.43554673	-0.000167447	
-0.43554356	-0.000158362	
-0.43553723	-0.000154749	
-0.43554145	-0.00015671	
-0.43553829	-0.000152581	
-0.43554145	-0.000143703	
-0.43554356	-0.00013978	
-0.43554145	-0.000149587	
-0.43554145	-0.000147832	
-0.43554145	-0.000142567	
-0.43554251	-0.000150929	
-0.43554568	-0.00014618	
-0.43553934	-0.000144529	
-0.43554251	-0.00014329	
-0.43554145	-0.000142877	
-0.43553723	-0.000139057	
-0.43553934	-0.000139677	
-0.43554251	-0.000143703	
-0.43554673	-0.000147006	
-0.43554568	-0.000143187	
-0.43554356	-0.000145871	
-0.43554145	-0.000152581	
-0.43553934	-0.000153716	
-0.43553723	-0.000144838	
-0.4355404	-0.000152581	
-0.43553934	-0.000155575	
-0.43553512	-0.00014618	
-0.43554251	-0.000149587	
-0.43554145	-0.000154026	
-0.43553934	-0.000155884	
-0.43553723	-0.000149277	
-0.43554145	-0.000150929	
-0.43554145	-0.000145148	
-0.43553829	-0.000148348	
-0.4355404	-0.000151342	
-0.43553829	-0.000157226	
-0.43553723	-0.00015351	
-0.43553934	-0.000131108	
-0.43553723	-0.000152168	
-0.43553829	-0.000154439	
-0.43553723	-0.000148348	
-0.43554145	-0.000144838	
-0.43553512	-0.000149484	
-0.43554145	-0.00015	
-0.4355404	-0.000155059	
-0.43553829	-0.000154336	
-0.43553934	-0.00014618	
-0.43553934	-0.0001532	
-0.43553512	-0.000164659	
-0.43553617	-0.000163008	
-0.43553934	-0.000129972	
-0.43553723	-0.000129869	
-0.43553723	-0.000135754	
-0.43553723	-0.000134308	
-0.43553934	-0.000131315	
-0.43554145	-0.000112629	
-0.43553934	-0.000137509	
-0.43553512	-0.000152271	
-0.43553406	-0.000162078	
-0.43553934	-0.000165176	
-0.43552879	-0.000198624	
-0.43553934	-0.000124708	
-0.43554356	-0.000143187	
-0.43553934	-0.000149484	
-0.43554356	-0.000143083	
-0.43549712	-0.000147626	
-0.43553723	-0.00014298	
-0.43553723	-0.000146903	
-0.43553829	-0.000148555	
-0.43553723	-0.000151032	
-0.435343	-0.000145251	
-0.43553934	-0.000144942	
-0.43553723	-0.000145871	
-0.43553829	-0.000155265	
-0.43544645	-0.000170234	
-0.43553512	-0.000170337	
-0.43553512	-0.000170544	
-0.43552879	-0.000176944	
-0.43553301	-0.00015351	
-0.43553617	-0.000145871	
-0.43553934	-0.000136786	
-0.43553723	-0.000139883	
-0.43553723	-0.000173847	
-0.43553512	-0.000157123	
-0.43553512	-0.000147316	
-0.43553617	-0.000156504	
-0.43552984	-0.000200688	
-0.43553723	-0.000143909	
-0.43553512	-0.000133895	
-0.43553723	-0.000154026	
-0.43554356	-0.000122746	
-0.43553512	-0.000138334	
-0.43553512	-0.000144529	
-0.43553512	-0.000149381	
-0.43553512	-0.000156401	
-0.43552879	-0.00017075	
-0.43553301	-0.000156814	
-0.43553301	-0.000145148	
-0.43553406	-0.000151858	
-0.43553512	-0.00016084	
-0.43552879	-0.00016724	
-0.43553617	-0.000145664	
-0.43554462	-0.000127908	
-0.43553406	-0.000148451	
-0.43553195	-0.000155265	
-0.4355309	-0.000150103	
-0.43553512	-0.000144219	
-0.43553195	-0.000150723	
-0.43553934	-9.5595e-005	
-0.43553512	-0.000146903	
-0.43553512	-0.0001532	
-0.43553301	-0.000143806	
-0.43553406	-0.000154852	
-0.43553512	-0.000146593	
-0.4355309	-0.000149071	
-0.43553512	-0.000147522	
-0.43553512	-0.000151755	
-0.43553301	-0.000157846	
-0.43553301	-0.000154749	
-0.43553512	-0.000151239	
-0.43553512	-0.000140296	
-0.43552773	-0.000167137	
-0.43552562	-0.000169615	
-0.43553195	-0.000163524	
-0.4355309	-0.000162904	
-0.43553406	-0.000153304	
-0.43553512	-0.000147935	
-0.43553195	-0.000153716	
-0.43553617	-0.000151549	
-0.43553723	-0.000147832	
-0.43553195	-0.000149277	
-0.43553406	-0.000143909	
-0.43553301	-0.000142567	
-0.43553301	-0.000158156	
-0.43553406	-0.000154129	
-0.43553512	-0.000152168	
-0.43553406	-0.000152891	
-0.43553195	-0.000147626	
-0.43553617	-0.000155988	
-0.43552879	-0.000158775	
-0.43553301	-0.000153923	
-0.43553406	-0.000155575	
-0.43553512	-0.000130179	
-0.43553617	-0.000130385	
-0.43553301	-0.000145148	
-0.43554568	-0.000106745	
-0.43553512	-0.000161149	
-0.43553301	-0.000163111	
-0.43553617	-0.000159394	
-0.43553301	-0.0001532	
-0.43553406	-0.000154749	
-0.43553301	-0.000154336	
-0.43553512	-0.000154336	
-0.43553301	-0.000154129	
-0.43553406	-0.000154129	
-0.43553301	-0.000155162	
-0.43553723	-0.000159704	
-0.43553406	-0.000154749	
-0.43553301	-0.000149277	
-0.43553301	-0.000156401	
-0.4355309	-0.000155678	
-0.43553301	-0.000162078	
-0.43553406	-0.000153716	
-0.43553195	-0.000154026	
-0.43553301	-0.000153407	
-0.43553406	-0.000152478	
-0.43552879	-0.000159807	
-0.43553301	-0.000153613	
-0.4355309	-0.000151755	
-0.43553301	-0.000153407	
-0.43553301	-0.000154646	
-0.43553512	-0.00015351	
-0.4355309	-0.000148555	
-0.43553301	-0.000156504	
-0.43553406	-0.000150723	
-0.43553512	-0.000149484	
-0.43553301	-0.000149587	
-0.43553195	-0.000155059	
-0.43553195	-0.00017488	
-0.43553617	-0.000142774	
-0.43553301	-0.000131315	
-0.4355309	-0.000161666	
-0.43552984	-0.000167034	
-0.43553406	-0.000157743	
-0.43553195	-0.000158156	
-0.43553406	-0.000154749	
-0.43553195	-0.00015031	
-0.43553301	-0.000153716	
-0.43553301	-0.000151652	
-0.43553301	-0.000153304	
-0.43553195	-0.000147935	
-0.43553301	-0.000155265	
-0.43553617	-0.000149381	
-0.4355309	-0.00013658	
-0.4355309	-0.000160427	
-0.43553195	-0.000155162	
-0.43553406	-0.000163937	
-0.43553195	-0.000163421	
-0.43553406	-0.000162801	
-0.4355309	-0.000159807	
-0.43553406	-0.000146593	
-0.43553512	-0.000150206	
-0.43552984	-0.000160014	
-0.43552667	-0.00016022	
-0.43552984	-0.000158568	
-0.43553195	-0.000148348	
-0.43553301	-0.000149381	
-0.43553195	-0.000151961	
-0.4355309	-0.000154542	
-0.43552879	-0.000153407	
-0.43552879	-0.000157536	
-0.43553301	-0.00015671	
-0.4355309	-0.000154439	
-0.43553301	-0.000155781	
-0.43553301	-0.000156504	
-0.43553301	-0.000158156	
-0.43552984	-0.000154852	
-0.43552984	-0.000161149	
-0.4355309	-0.000150206	
-0.43553195	-0.000148658	
-0.43553512	-0.000156297	
-0.43553406	-0.000147729	
-0.43553512	-0.000149071	
-0.43553195	-0.000152168	
-0.43553301	-0.000142051	
-0.43552984	-0.000148864	
-0.43553406	-0.000150516	
-0.43553301	-0.000147832	
-0.43553512	-0.000139986	
-0.43553406	-0.000151136	
-0.43553301	-0.000151032	
-0.4355309	-0.000154129	
-0.43553195	-0.00015382	
-0.43553301	-0.000158672	
-0.43552773	-0.000155162	
-0.4355309	-0.000153097	
-0.43553301	-0.000150206	
-0.4355309	-0.000151652	
-0.4355309	-0.000153097	
-0.43552984	-0.000153097	
-0.43553195	-0.000148864	
-0.43553301	-0.000152478	
-0.4355309	-0.000151755	
-0.43553406	-0.000154646	
-0.4355309	-0.000153304	
-0.43553301	-0.000151858	
-0.4355309	-0.000151239	
-0.43552984	-0.000154439	
-0.43553406	-0.000151858	
-0.43553301	-0.000152684	
-0.43553406	-0.000151342	
-0.43553512	-0.000149071	
-0.43553301	-0.000151961	
-0.43553301	-0.000156091	
-0.4355309	-0.000156091	
-0.43552984	-0.000154955	
-0.43553301	-0.000154852	
-0.43553195	-0.000150826	
-0.43553406	-0.000151239	
-0.43552984	-0.000158981	
-0.4355309	-0.00015031	
-0.43552984	-0.000151549	
-0.43552879	-0.000153304	
-0.43553301	-0.000148039	
-0.43553617	-0.000158259	
-0.4355309	-0.000157743	
-0.43553301	-0.00015382	
-0.4355404	-0.000124295	
-0.43553301	-0.000144632	
-0.43553512	-0.000153716	
-0.43553301	-0.000150826	
-0.4355309	-0.00016373	
-0.43552879	-0.000151652	
-0.4355309	-0.000148245	
-0.43553301	-0.000155781	
-0.43553195	-0.000151239	
-0.43553512	-0.000161666	
-0.43553301	-0.000167034	
-0.43553195	-0.000160736	
-0.43553301	-0.000146284	
-0.43553301	-0.000152684	
-0.43553406	-0.000152581	
-0.4355309	-0.000154336	
-0.43553406	-0.000154749	
-0.43553195	-0.000147935	
-0.4355309	-0.000161975	
-0.43552879	-0.000161769	
-0.4355309	-0.000145561	
-0.43552879	-0.000151652	
-0.43552879	-0.000160736	
-0.4355309	-0.000154749	
-0.43553195	-0.000155988	
-0.43552879	-0.000159807	
-0.4355309	-0.000152065	
-0.4355309	-0.00015671	
-0.43552773	-0.000154439	
-0.43553301	-0.000151961	
-0.43553301	-0.000156917	
-0.4355309	-0.000154233	
-0.43553301	-0.000149174	
-0.4355309	-0.000154439	
-0.43552667	-0.000153407	
-0.43553301	-0.000157639	
-0.43552879	-0.000151445	
-0.43553301	-0.000154129	
-0.43552984	-0.000152065	
-0.43553195	-0.000158362	
-0.4355309	-0.000154129	
-0.43553195	-0.000161872	
-0.43552773	-0.000163214	
-0.43553301	-0.000159498	
-0.43553195	-0.000156504	
-0.43552984	-0.000159704	
-0.43553301	-0.0001532	
-0.43552984	-0.000152994	
-0.43552879	-0.00015382	
-0.43552879	-0.000158156	
-0.43551823	-0.000211528	
-0.43553829	-0.000130385	
-0.43553301	-0.000147522	
-0.43553406	-0.000154955	
-0.4355309	-0.00014618	
-0.4355309	-0.000148142	
-0.43553301	-0.000149587	
-0.43553195	-0.000150103	
-0.4355309	-0.000149794	
-0.43553195	-0.000150103	
-0.4355309	-0.000154852	
-0.43553301	-0.000152994	
-0.43552879	-0.000152787	
-0.43552879	-0.000163317	
-0.43552879	-0.000173434	
-0.43552456	-0.000176222	
-0.43553406	-0.000148142	
-0.43553512	-0.000133276	
-0.43553195	-0.000151858	
-0.43553301	-0.000165176	
-0.43552984	-0.000181074	
-0.4355309	-0.000170544	
-0.43553512	-0.000131418	
-0.4355309	-0.000145767	
-0.43553406	-0.000143393	
-0.43552879	-0.000147316	
-0.43552879	-0.000159704	
-0.4355214	-0.000208534	
-0.43551612	-0.000208947	
-0.43554356	-6.9374e-005	
-0.43553723	-0.000124295	
-0.43553195	-0.000153716	
-0.43552879	-0.000141844	
-0.43552984	-0.000144942	
-0.43553512	-0.000136786	
-0.43553195	-0.000166001	
-0.43552984	-0.00016435	
-0.43553195	-0.000163214	
-0.43553617	-0.000117171	
-0.43553195	-0.000152684	
-0.43552984	-0.000149897	
-0.43553301	-0.000152787	
-0.43553512	-0.000152065	
-0.43553406	-0.000149381	
-0.43553406	-0.000151858	
-0.43552773	-0.000154852	
-0.43552562	-0.000161872	
-0.43553301	-0.000152168	
-0.43552667	-0.000155575	
-0.4355309	-0.000151755	
-0.43552667	-0.000163317	
-0.43551929	-0.000165692	
-0.43552456	-0.000160427	
-0.4355309	-0.000149587	
-0.43553617	-0.000140709	
-0.43553406	-0.000147522	
-0.43553301	-0.000147213	
-0.4355309	-0.000149381	
-0.43553301	-0.00015351	
-0.43553301	-0.000153097	
-0.43552667	-0.000150826	
-0.43550978	-0.000179938	
-0.4355214	-0.00015382	
-0.43551823	-0.00016435	
-0.43551717	-0.000166001	
-0.43552245	-0.000167034	
-0.43552667	-0.000178183	
-0.43552456	-0.000163317	
-0.43552245	-0.000161666	
-0.43552245	-0.000151239	
-0.43553406	-0.000147935	
-0.43552456	-0.000151961	
-0.43552667	-0.000166311	
-0.43552667	-0.000159704	
-0.4355309	-0.000159394	
-0.43553301	-0.000155988	
-0.43552879	-0.000156297	
-0.43552984	-0.000156607	
-0.43552879	-0.000152891	
-0.43553617	-0.000163214	
-0.43553195	-0.000155988	
-0.43553406	-0.000148864	
-0.4355309	-0.000164556	
-0.43552984	-0.000153716	
-0.43553301	-0.000147109	
-0.43553301	-0.000151445	
-0.43553406	-0.000144529	
-0.43552984	-0.000152581	
-0.4355309	-0.000152684	
-0.43553301	-0.000158878	
-0.43552879	-0.000155265	
-0.43553301	-0.000155162	
-0.43552984	-0.000166724	
-0.43552667	-0.000154852	
-0.43552879	-0.000147626	
-0.43552879	-0.000162182	
-0.4355309	-0.00015671	
-0.4355309	-0.000152374	
-0.43552456	-0.000148555	
-0.43552879	-0.000155884	
-0.43552773	-0.000152684	
-0.43552879	-0.000161975	
-0.43552667	-0.000166414	
-0.4355309	-0.000150826	
-0.43553195	-0.000139573	
-0.43552667	-0.000149587	
-0.4355309	-0.000149484	
-0.43552879	-0.000144425	
-0.43552984	-0.000166621	
-0.4355309	-0.00016755	
-0.43552879	-0.000152168	
-0.4355309	-0.000161149	
-0.43552879	-0.000173847	
-0.43552984	-0.000162595	
-0.43552879	-0.000161253	
-0.43553301	-0.000135031	
-0.43552773	-0.000142567	
-0.43552879	-0.000141844	
-0.43553301	-0.000151961	
-0.43552879	-0.000166208	
-0.4355309	-0.000159085	
-0.4355309	-0.000142774	
-0.4355309	-0.000130798	
-0.43552879	-0.00012605	
-0.4355309	-0.000131211	
-0.43552984	-0.000125843	
-0.43553301	-0.000123159	
-0.43552667	-0.000133999	
-0.43552773	-0.000153613	
-0.43552456	-0.000159498	
-0.43553512	-0.000165795	
-0.4355309	-0.000168479	
-0.43554462	-9.3014e-005	
-0.43553301	-0.000180248	
-0.43553301	-0.00014618	
-0.4355309	-0.00017395	
-0.4355309	-0.000180454	
-0.4355309	-0.000130076	
-0.43552879	-0.000155265	
-0.4355309	-0.000158156	
-0.4355309	-0.000140399	
-0.43552773	-0.000129147	
-0.43552879	-0.000138231	
-0.43552984	-0.000212767	
-0.43552879	-0.000212663	
-0.43552667	-0.000294529	
-0.43552984	-9.7041e-005	
-0.43552773	-0.000163317	
-0.4355309	-0.000205334	
-0.4355309	-0.000176428	
-0.43552667	-0.000163111	
-0.43552562	-0.000131418	
-0.43553195	-0.000129663	
-0.4355309	-0.000164143	
-0.43552879	-0.000182106	
-0.43552667	-0.000164969	
-0.43552667	-0.000149897	
-0.4355309	-0.000156091	
-0.43552456	-0.000155988	
-0.43552879	-0.000189642	
-0.43552773	-0.000178493	
-0.43552667	-0.000161253	
-0.4355309	-0.000179628	
-0.43552879	-0.000204921	
-0.43552879	-0.000176531	
-0.4355309	-0.000179009	
-0.43552879	-0.00019501	
-0.43552879	-0.000160014	
-0.43553301	-9.1982e-005	
-0.43552773	-0.000137818	
-0.43552879	-0.000131934	
-0.43552667	-0.0001532	
-0.43552879	-0.000174054	
-0.4355309	-0.000177564	
-0.43552667	-0.000175086	
-0.4355309	-0.000135341	
-0.43553195	-0.000139573	
-0.43552879	-0.000139264	
-0.43552879	-0.000156917	
-0.43552667	-0.00016084	
-0.43552984	-0.000163524	
-0.43552879	-0.000181487	
-0.43552879	-0.000224948	
-0.43552879	-0.000238988	
-0.43552456	-0.000159704	
-0.43552879	-0.000120372	
-0.43552879	-0.000162285	
-0.43552667	-0.000174054	
-0.43552879	-4.8727e-005	
-0.43552773	-0.000225878	
-0.4355309	-0.000149071	
-0.43552879	-6.8961e-005	
-0.43552879	-0.0001851	
-0.43553195	-0.000226187	
-0.43552773	-0.000288231	
-0.43552667	-0.000272643	
-0.43552773	-0.00019501	
-0.43552879	-7.7942e-005	
-0.43552667	-5.0482e-005	
-0.4355309	-2.0544e-005	
-0.43553406	-0.001594978	
-0.43552879	3.9952e-005	
-0.4355309	3.6339e-005	
-0.43553195	3.5719e-005	
-0.43552879	3.8919e-005	
-0.4355309	2.4673e-005	
-0.4355309	5.988e-006	
-0.43552456	-1.4453e-005	
-0.43552879	4.6352e-005	
-0.43552562	9.8279e-005	
-0.43552667	4.3668e-005	
-0.4355309	-2.8699e-005	
-0.43552984	-1.2698e-005	
-0.43552667	7.433e-006	
-0.43552879	7.8458e-005	
-0.43552245	4.15e-005	
-0.43553512	-9.394e-006	
-0.43552984	-6.5038e-005	
-0.43552879	4.5733e-005	
-0.4355309	2.044e-005	
-0.43552879	-7.1955e-005	
-0.43552879	-0.000129972	
-0.43552773	-0.000211528	
-0.43552456	-0.000140606	
-0.4355309	-0.000121507	
-0.43553406	3.5203e-005	
-0.43551401	-0.000882347	
-0.43552245	-0.000206366	
-0.43552456	-0.00021958	
-0.43552245	-0.000326738	
-0.43551717	-0.000745458	
-0.43551612	-0.00050554	
-0.43552667	-0.000101893	
-0.4355309	0.000293806	
-0.4355309	4.4288e-005	
-0.43552562	-1.053e-005	
-0.4355309	-6.1321e-005	
-0.43552456	-0.000170853	
-0.43552667	0.000135341	
-0.43552667	-1.7963e-005	
-0.43553195	-3.4171e-005	
-0.43552879	-3.9023e-005	
-0.43552667	-0.00015382	
-0.43552667	-0.000291019	
-0.43552879	-4.7694e-005	
-0.43552984	-4.2223e-005	
-0.43552879	-2.3228e-005	
-0.43552667	-3.1177e-005	
-0.43552879	-7.1748e-005	
-0.43552667	-0.000123985	
-0.4355309	-0.000106538	
-0.43552773	-0.00013947	
-0.43553195	-8.7646e-005	
-0.43553301	-6.3386e-005	
-0.43552879	-9.5905e-005	
-0.43552879	-0.000165485	
-0.4355309	-0.000124191	
-0.43552984	-0.000100138	
-0.43552879	-8.2175e-005	
-0.43552667	-8.362e-005	
-0.43552879	-8.5891e-005	
-0.43552879	-0.000188094	
-0.43552667	-0.000116036	
-0.4355309	-7.98e-005	
-0.43552879	-0.000131624	
-0.43552984	-0.000196869	
-0.43552773	-0.000156194	
-0.43552879	-0.000147006	
-0.43552984	-0.00011552	
-0.43552879	-0.000101686	
-0.43552879	-0.000100757	
-0.43553301	-7.8768e-005	
-0.43552984	-9.4047e-005	
-0.4355309	-9.4976e-005	
-0.43552879	-9.0537e-005	
-0.43552984	-0.000127495	
-0.43552667	-0.000145148	
-0.43552667	-0.000175086	
-0.43552667	-0.000189023	
-0.43552879	-0.000156297	
-0.43552667	-0.000167343	
-0.43552879	-0.000176428	
-0.43552984	-0.000188507	
-0.43552984	-0.000209979	
-0.43552667	-0.000176738	
-0.43552984	-0.000154129	
-0.43552667	-0.000161562	
-0.43552773	-0.000137612	
-0.43552984	-0.000145458	
-0.43552879	-0.000134515	
-0.43552879	-0.000118617	
-0.43553195	-0.000119443	
-0.43552879	-0.00012254	
-0.4355309	-0.000107467	
-0.4355309	-9.4563e-005	
-0.43552984	-0.000120578	
-0.4355309	-8.9711e-005	
-0.4355309	-6.5348e-005	
-0.43552879	-7.2161e-005	
-0.43552984	-0.000118617	
-0.43552667	-0.000141638	
-0.4355309	-0.000126669	
-0.43552984	-0.000115313	
-0.4355309	-0.000155781	
-0.43552984	-0.000151136	
-0.43553195	-0.000152581	
-0.4355309	-0.000161459	
-0.4355309	-0.000187681	
-0.43552879	-0.000183345	
-0.43552879	-0.000179835	
-0.4355309	-0.000157846	
-0.4355309	-0.000140193	
-0.4355309	-0.000144838	
-0.43552562	-0.000153923	
-0.43552879	-0.000160427	
-0.43552562	-0.000158052	
-0.43552879	-0.000191604	
-0.43552667	-0.000172505	
-0.4355309	-0.000147935	
-0.43552984	-0.000163111	
-0.43553195	-0.000157949	
-0.43553195	-0.000148039	
-0.43552667	-0.000153304	
-0.4355309	-0.000160633	
-0.43552879	-0.000164453	
-0.4355309	-0.000170544	
-0.4355309	-0.00015351	
-0.43552879	-0.000144529	
-0.43553195	-0.000136786	
-0.43552879	-8.0317e-005	
-0.43552879	-0.000114797	
-0.43552879	-0.000120888	
-0.43553195	-9.5905e-005	
-0.43553301	-7.5465e-005	
-0.4355309	-0.000137096	
-0.43553301	-0.000136063	
-0.43553301	-0.000137818	
-0.43553301	-0.000147419	
-0.4355309	-0.000147832	
-0.4355309	-0.000145871	
-0.43552984	-0.000145974	
-0.43553195	-0.000149794	
-0.4355309	-0.000158156	
-0.43552879	-0.000156607	
-0.43553301	-0.000155678	
-0.43552984	-0.000166621	
-0.43552879	-0.000283482	
-0.43552456	-0.000215244	
-0.43553617	6.318e-005	
-0.43552879	-0.000144425	
-0.43552667	-0.00016084	
-0.43552667	-0.000156607	
-0.43553406	-0.000149071	
-0.4355309	-0.000155884	
-0.43552984	-0.000170131	
-0.43552773	-0.000194907	
-0.43552773	-0.000179835	
-0.43552773	-9.3014e-005	
-0.43552984	-0.000168273	
-0.43552879	-0.00017137	
-0.4355309	-0.000243737	
-0.43552879	-0.000243634	
-0.4355309	-0.000280385	
-0.43552667	-0.000185926	
