#INFO
#COMMENT: 

#DATA:
-0.45698929	2.044e-005	
-0.45699457	2.2608e-005	
-0.45699246	2.2299e-005	
-0.45699034	1.6001e-005	
-0.45699034	1.5279e-005	
-0.45699246	1.8273e-005	
-0.45697557	2.5602e-005	
-0.45697346	1.2388e-005	
-0.45696923	2.1886e-005	
-0.45697557	2.3538e-005	
-0.45697134	2.0028e-005	
-0.45697134	1.8066e-005	
-0.45696712	1.8892e-005	
-0.45696712	2.2815e-005	
-0.45696923	1.6518e-005	
-0.4569629	1.7447e-005	
-0.45696712	1.8685e-005	
-0.45696501	2.426e-005	
-0.45696501	1.3937e-005	
-0.4569629	1.8169e-005	
-0.45695868	1.5279e-005	
-0.4569249	1.9718e-005	
-0.45690167	1.9202e-005	
-0.45688689	1.6311e-005	
-0.45686789	2.0337e-005	
-0.456851	2.1886e-005	
-0.45681722	1.9821e-005	
-0.45679822	2.075e-005	
-0.456794	3.2932e-005	
-0.45677922	1.084e-005	
-0.45677289	4.026e-006	
-0.45676233	2.5705e-005	
-0.45672855	1.7343e-005	
-0.45625036	1.1666e-005	
-0.45579012	1.4246e-005	
-0.45536365	1.404e-005	
-0.45455189	2.6531e-005	
-0.45342872	1.8066e-005	
-0.4526634	1.5692e-005	
-0.45199414	1.7653e-005	
-0.45131961	2.5602e-005	
-0.45109371	2.2608e-005	
-0.45095014	1.8066e-005	
-0.45081503	1.5692e-005	
-0.45068624	2.1886e-005	
-0.45057118	1.6621e-005	
-0.45039278	1.6621e-005	
-0.45011624	2.9319e-005	
-0.44991779	2.5086e-005	
-0.44959899	1.7756e-005	
-0.44938048	1.9615e-005	
-0.44912502	1.8789e-005	
-0.4488569	2.4983e-005	
-0.44843888	1.7756e-005	
-0.44799235	1.7137e-005	
-0.44770523	1.9408e-005	
-0.44748566	2.3744e-005	
-0.44738749	2.5912e-005	
-0.44720065	2.0028e-005	
-0.44698952	2.0337e-005	
-0.44684807	2.5396e-005	
-0.44662428	2.5293e-005	
-0.44644272	2.6118e-005	
-0.44629177	3.8919e-005	
-0.44615982	3.0248e-005	
-0.44606164	4.1191e-005	
-0.44591808	4.9656e-005	
-0.44576185	6.638e-005	
-0.44554228	7.5361e-005	
-0.44528683	8.8679e-005	
-0.44507043	0.000132347	
-0.44478647	0.000156917	
-0.44454368	0.000223813	
-0.44430827	0.000327151	
-0.44417527	0.000457846	
-0.44385225	0.000620028	
-0.44356301	0.000839608	
-0.44333711	0.00099446	
-0.4431091	0.001101205	
-0.44303943	0.001182657	
-0.44288531	0.001258018	
-0.44276286	0.001318617	
-0.44265941	0.001387061	
-0.44250318	0.001442498		
-0.44234801	0.001306848	
-0.44227411	0.001523125	
-0.44217066	0.001589195	
-0.44205032	0.001610358	
-0.44200388	0.001640709	
-0.44192365	0.001666002	
-0.44187509	0.00167075	
-0.44181387	0.001644116	
-0.44176214	0.001653097	
-0.44165342	0.001615933	
-0.44157108	0.001565864	
-0.44146552	0.00149969	
-0.44129345	0.001462319	
-0.44115306	0.001468514	
-0.44105172	0.001494013	
-0.4409926	0.001490812	
-0.4409546	0.001496697	
-0.44091871	0.001497626	
-0.44087121	0.001539642	
-0.44080471	0.00160179	
-0.4407382	0.00173073	
-0.4406432	0.001906229	
-0.44056403	0.002013902	
-0.44048486	0.002056538	
-0.44043841	0.002077392	
-0.44040463	0.002103306	
-0.44028851	0.002123849	
-0.44019773	0.00225248	
-0.44006578	0.0024446	
-0.43986205	0.002596768	
-0.43972695	0.002576947	
-0.43965939	0.002595219	
-0.43958972	0.002626706	
-0.43951688	0.002709087	
-0.43935537	0.002705783	
-0.43914319	0.002623402	
-0.43892363	0.002461117	
-0.43873995	0.002239266	
-0.43857528	0.002004818	
-0.43849505	0.001856573	
-0.43842116	0.001762216	
-0.43840005	0.001765933	
-0.4383536	0.001761081	
-0.4382322	0.001606642	
-0.43810447	0.001440847	
-0.43797886	0.001366518	
-0.43789335	0.001279181	
-0.43784691	0.001270716	
-0.43777512	0.001208259	
-0.43758723	0.001055472	
-0.43748378	0.000915795	
-0.43729904	0.000734412	
-0.43717026	0.000545079	
-0.43703936	0.000448658	
-0.43696547	0.00044267	
-0.43686624	0.000421094	
-0.43675435	0.000350172	
-0.43658545	0.000281005	
-0.43645878	0.000218238	
-0.43634899	0.000124398	
-0.43626771	0.000123365	
-0.43617799	9.9828e-005	
-0.43607454	5.2546e-005	
-0.4358993	3.7887e-005	
-0.43575891	1.2801e-005	
-0.43560901	8.26e-007	
-0.43544011	1.7756e-005	
-0.43523533	1.1459e-005	
-0.4349672	5.162e-006	
-0.43461885	6.401e-006	
-0.43419872	1.3833e-005	
-0.43396015	1.084e-005	
-0.43374903	-2.2608e-005	
-0.43309138	-2.168e-006	
-0.4318616	-1.9098e-005	
-0.43023807	-3.7887e-005	
-0.42859029	-1.3317e-005	
-0.42746501	5.2856e-005	
-0.42656985	6.9993e-005	
-0.42500333	6.6896e-005	
-0.42334391	1.1769e-005	
-0.4202668	-4.2842e-005	
-0.41706619	7.949e-006	
-0.41483358	5.988e-006	
-0.41211855	-2.478e-006	
-0.40848725	9.291e-006	
-0.40574057	-4.532e-005	
-0.40275425	2.684e-006	
-0.3998281	1.7137e-005	
-0.39627284	1.4556e-005	
-0.39326013	-1.8273e-005	
-0.38941348	-1.5072e-005	
-0.38596797	2.6015e-005	
-0.38222267	2.2092e-005	
-0.3790875	9.085e-006	
-0.37551956	5.988e-006	
-0.37326161	7.123e-006	
-0.36971054	1.3008e-005	
-0.36582169	1.4143e-005	
-0.36092788	9.601e-006	
-0.35485285	8.259e-006	
-0.35051218	1.961e-006	
-0.34403498	-7.23e-007	
-0.33874109	7.536e-006	
-0.33072059	7.433e-006	
-0.32349388	9.085e-006	
-0.31814932	4.336e-006	
-0.31238148	5.471e-006	
-0.30623255	1.032e-006	
-0.30119098	6.297e-006	
-0.29521411	4.129e-006	
-0.28900924	5.575e-006	
-0.28361613	6.607e-006	
-0.27916885	1.084e-005	
-0.27500763	1.4866e-005	
-0.27043895	9.291e-006	
-0.26690266	1.3008e-005	
-0.2637485	1.4143e-005	
-0.2623382	9.291e-006	
-0.2609807	1.6311e-005	
-0.25966541	1.6105e-005	
-0.25837229	1.3008e-005	
-0.25714672	6.917e-006	
-0.2554778	-3.7681e-005	
-0.25411501	-2.5396e-005	
-0.25266249	-2.7357e-005	
-0.25132925	-9.394e-006	
-0.2500108	-4.129e-006	
-0.24904491	5.162e-006	
-0.24802731	6.607e-006	
-0.24663496	4.336e-006	
-0.24520883	3.5513e-005	
-0.24366658	2.6428e-005	
-0.24204833	-1.8789e-005	
-0.24038998	-6.8961e-005	
-0.23932803	-7.0613e-005	
-0.23887623	-4.955e-006	
-0.23882345	8.775e-006	
-0.23878545	1.2078e-005	
-0.23875906	-2.3021e-005	
-0.23874745	-5.3269e-005	
-0.23827559	-2.7667e-005	
-0.23701625	-1.3008e-005	
-0.23581074	-0.000179422	
-0.23451762	-0.000117997	
-0.23272203	-2.4467e-005	
-0.23119878	3.3551e-005	
-0.23029096	0.000116346	
-0.22967027	-2.2195e-005	
-0.22913507	-2.0957e-005	
-0.22843837	7.1542e-005	
-0.22715369	-5.988e-006	
-0.22483029	-2.3125e-005	
-0.22291014	-0.000116965	
-0.22132989	2.6428e-005	
-0.22080842	0.00013596	
-0.2207018	0.000152065	
-0.22068069	0.000210289	
-0.22066591	0.00016724	
-0.22066169	3.7371e-005	
-0.22065219	0.000150619	
-0.2206448	0.000186442	
-0.22067436	0.000156814	
-0.22025	0.000124604	
-0.21994176	0.000112629	
-0.21953008	0.000136167	
-0.21893366	0.000223606	
-0.21852408	0.000183964	
-0.21823062	0.000206986	
-0.21771548	0.000231452	
-0.21721829	0.000269855	
-0.21663982	0.000306091	
-0.21617957	0.0003415	
-0.21565071	0.000367103	
-0.21552192	0.00036287	
-0.2154607	0.000366277	
-0.2154417	0.000372161	
-0.21542903	0.000354508	
-0.21542059	0.000354095	
-0.21541003	0.000367825	
-0.21538258	0.000368238	
-0.21539103	0.00036989	
-0.21536992	0.000381039	
-0.21531714	0.000375981	
-0.21527913	0.000392292	
-0.21524958	0.000396731	
-0.21519469	0.000418101	
-0.21482522	0.000445354	
-0.21429742	0.000482209	
-0.21387834	0.000513902	
-0.21363766	0.000519477	
-0.21350676	0.000517825	
-0.21349199	0.000531555	
-0.21340754	0.000547763	
-0.21313097	0.000591328	
-0.21257994	0.000629835	
-0.2117534	0.000684859	
-0.21084979	0.000748452	
-0.20965801	0.000776118	
-0.20799332	0.000753923	
-0.20625684	0.000667412	
-0.20487083	0.000539917	
-0.20381944	0.000423365	
-0.20340881	0.000349553	
-0.20300768	0.000312801	
-0.20279339	0.000291328	
-0.20247565	0.000258293	
-0.20170822	0.000209257	
-0.20103052	0.000180867	
-0.20049005	0.000145871	
-0.20011953	0.000136373	
-0.19984296	0.000113352	
-0.19931515	9.415e-005	
-0.1989668	7.1025e-005	
-0.19871134	4.501e-005	
-0.19828486	-7.9078e-005	
-0.19803468	2.5086e-005	
-0.19793334	5.234e-005	
-0.19787845	7.0096e-005	
-0.19784889	8.713e-005	
-0.197832	9.5182e-005	
-0.19780878	9.4769e-005	
-0.19777605	9.3944e-005	
-0.19742031	0.000162595	
-0.19710574	7.371e-005	
-0.19682495	3.7061e-005	
-0.19669405	3.8094e-005	
-0.1965716	3.5719e-005	
-0.19612508	2.3538e-005	
-0.19574084	2.2608e-005	
-0.19543471	7.743e-006	
-0.19518559	1.6724e-005	
-0.19496391	1.6724e-005	
-0.19484146	1.0736e-005	
-0.1947929	1.404e-005	
-0.19466834	1.8789e-005	
-0.1944266	1.3214e-005	
-0.19422392	1.5072e-005	
-0.19411625	1.4866e-005	
-0.19406558	9.601e-006	
-0.19403814	1.3627e-005	
-0.19379957	1.373e-005	
-0.19357789	1.3627e-005	
-0.19347022	6.813e-006	
-0.19341533	1.0943e-005	
-0.19308809	-1.032e-006	
-0.19282524	2.5086e-005	
-0.19248956	3.7061e-005	
-0.19237344	9.911e-006	
-0.19222988	8.878e-006	
-0.19216021	4.749e-006	
-0.19207576	8.672e-006	
-0.19207365	1.0633e-005	
-0.19178441	6.401e-006	
-0.1915754	6.813e-006	
-0.1909642	9.085e-006	
-0.1905409	6.401e-006	
-0.19033295	8.672e-006	
-0.19019572	4.852e-006	
-0.19008699	1.3421e-005	
-0.18941773	7.02e-006	
-0.1889216	-3.716e-006	
-0.18835368	-3.9539e-005	
-0.18813622	-9.394e-006	
-0.18795678	1.8169e-005	
-0.18772032	1.3627e-005	
-0.1873118	6.5554e-005	
-0.18684733	5.575e-006	
-0.18626252	8.981e-006	
-0.18599651	1.0943e-005	
-0.18559749	1.053e-005	
-0.18513196	1.0117e-005	
-0.18451127	-5.16e-007	
-0.18421147	-1.8685e-005	
-0.18406685	-1.755e-005	
-0.18369634	-5.162e-006	
-0.18293946	3.7061e-005	
-0.18258267	1.1562e-005	
-0.18246444	5.781e-006	
-0.18216781	2.684e-006	
-0.18196725	2.0647e-005	
-0.18141199	2.3538e-005	
-0.18039966	2.0853e-005	
-0.17976208	1.4866e-005	
-0.17946017	1.9718e-005	
-0.17935883	1.7756e-005	
-0.17931028	1.5279e-005	
-0.17927438	1.0117e-005	
-0.17926805	7.639e-006	
-0.17913504	1.5588e-005	
-0.17913504	5.059e-006	
-0.17904321	8.259e-006	
-0.17895031	9.085e-006	
-0.17877719	3.923e-006	
-0.17866741	5.884e-006	
-0.17838239	4.233e-006	
-0.1778852	6.813e-006	
-0.17705443	5.059e-006	
-0.17624055	1.7756e-005	
-0.17509944	1.0736e-005	
-0.17410083	7.123e-006	
-0.17308217	7.846e-006	
-0.17231157	7.02e-006	
-0.17172571	3.51e-006	
-0.1712169	1.5485e-005	
-0.17096144	1.2698e-005	
-0.17078938	5.162e-006	
-0.17073238	6.917e-006	
-0.17073554	7.846e-006	
-0.17058565	1.022e-005	
-0.17035552	1.1562e-005	
-0.17008001	5.575e-006	
-0.16951843	5.988e-006	
-0.16865283	7.33e-006	
-0.16721192	1.1149e-005	
-0.16606659	1.6311e-005	
-0.16425622	6.091e-006	
-0.16232973	9.911e-006	
-0.16004645	4.026e-006	
-0.1579954	2.6325e-005	
-0.15624835	6.813e-006	
-0.15455621	1.0117e-005	
-0.15300129	1.0323e-005	
-0.15188974	8.259e-006	
-0.15087213	1.0427e-005	
-0.14976585	1.0943e-005	
-0.14814865	1.1769e-005	
-0.14709199	8.26e-007	
-0.14606805	1.0943e-005	
-0.14496493	5.988e-006	
-0.14375098	7.639e-006	
-0.14237763	1.0117e-005	
-0.14131463	9.704e-006	
-0.13992651	8.052e-006	
-0.13808025	7.23e-007	
-0.13560905	3.097e-006	
-0.13303125	-1.1666e-005	
-0.13039751	-7.123e-006	
-0.1279886	-6.504e-006	
-0.12528307	1.1356e-005	
-0.12261765	1.1459e-005	
-0.11924392	8.878e-006	
-0.11614254	9.291e-006	
-0.11347819	4.5114e-005	
-0.1113638	3.097e-005	
-0.10990072	1.342e-006	
-0.10809352	2.271e-006	
-0.10567512	9.911e-006	
-0.10358182	6.813e-006	
-0.10185801	5.988e-006	
-0.09979957	8.052e-006	
-0.09783297	-2.1163e-005	
-0.09665913	5.781e-006	
-0.09588326	3.1693e-005	
-0.09552013	7.33e-006	
-0.09539134	1.1253e-005	
-0.09531956	9.498e-006	
-0.09507044	7.639e-006	
-0.09454052	3.304e-006	
-0.09377309	7.226e-006	
-0.09296028	7.226e-006	
-0.09210418	1.2595e-005	
-0.09144337	6.71e-006	
-0.09091662	1.2698e-005	
-0.09052182	1.0427e-005	
-0.09022625	9.704e-006	
-0.09004258	1.0117e-005	
-0.08995813	4.749e-006	
-0.08947255	5.781e-006	
-0.08855944	9.704e-006	
-0.08701931	4.336e-006	
-0.08555096	7.846e-006	
-0.08380181	1.3627e-005	
-0.08239466	7.743e-006	
-0.08111948	5.368e-006	
-0.08002904	1.1562e-005	
-0.07879398	4.646e-006	
-0.07731507	8.362e-006	
-0.07564192	1.3833e-005	
-0.07407645	1.5279e-005	
-0.07224075	3.097e-006	
-0.07015803	1.0117e-005	
-0.06754645	2.891e-006	
-0.06555029	9.807e-006	
-0.06438173	1.0117e-005	
-0.06328178	6.607e-006	
-0.06225678	6.401e-006	
-0.06154741	1.3833e-005	
-0.06064908	8.362e-006	
-0.05966525	8.465e-006	
-0.05872259	7.123e-006	
-0.057933	1.3008e-005	
-0.05722468	1.6105e-005	
-0.05650898	1.0736e-005	
-0.055864	8.465e-006	
-0.05516308	3.407e-006	
-0.05374328	5.575e-006	
-0.05210392	9.394e-006	
-0.05096597	7.433e-006	
-0.05054056	1.0736e-005	
-0.050454	5.471e-006	
-0.05042867	1.0117e-005	
-0.05040333	1.1149e-005	
-0.05039278	1.0943e-005	
-0.05038433	9.085e-006	
-0.050378	9.394e-006	
-0.05037589	1.961e-006	
-0.05038433	4.955e-006	
-0.05038539	6.917e-006	
-0.05038644	2.374e-006	
-0.05038644	7.02e-006	
-0.05038855	1.1666e-005	
-0.05038855	9.085e-006	
-0.05038855	9.704e-006	
-0.05038433	4.129e-006	
-0.05038644	2.4363e-005	
