#INFO
#COMMENT: 

#DATA:
-0.46678535	0.00013245	
-0.46678746	0.000140502	
-0.46678957	0.000134618	
-0.46678957	0.000137612	
-0.46678535	0.000135754	
-0.46677902	0.000139057	
-0.46678535	0.000130592	
-0.46678535	0.000138438	
-0.46678324	0.000135341	
-0.46678535	0.000127185	
-0.46678746	0.000135341	
-0.46678535	0.000135237	
-0.4667843	0.000135341	
-0.46678535	0.000134412	
-0.46678535	0.000133482	
-0.46678535	0.000134721	
-0.46678324	0.00013307	
-0.46678324	0.000132657	
-0.46678535	0.000135134	
-0.46678113	0.000142774	
-0.46678535	0.000137922	
-0.46678113	0.000137199	
-0.46678324	0.000138644	
-0.46678535	0.000137302	
-0.46678324	0.000140193	
-0.46678324	0.000133689	
-0.46678324	0.000137612	
-0.46678324	0.00013658	
-0.4667843	0.000132244	
-0.46677902	0.000135341	
-0.46678218	0.000130179	
-0.46678113	0.000135134	
-0.46678324	0.000136683	
-0.46678113	0.000135754	
-0.46678113	0.00012956	
-0.46677902	0.000132657	
-0.46677902	0.00013596	
-0.46677902	0.000133689	
-0.46678324	0.000144632	
-0.46678113	0.000129147	
-0.46677902	0.000124811	
-0.46669035	0.000133276	
-0.46644967	0.000134102	
-0.46614776	0.000135444	
-0.46567907	0.000134928	
-0.46498554	0.000130798	
-0.46436061	0.000119959	
-0.46377581	0.000117275	
-0.46336517	0.000114384	
-0.46308227	0.000137199	
-0.46291548	0.000147109	
-0.46257769	0.00013307	
-0.46223145	0.00011201	
-0.46178281	0.000112836	
-0.46133946	0.000112423	
-0.46091721	0.00010117	
-0.46048653	0.000109842	
-0.45994289	0.000133895	
-0.45932219	0.000138954	
-0.45886828	0.000138747	
-0.45832886	0.000132657	
-0.45795939	0.000131005	
-0.45757726	0.000138231	
-0.45708535	0.000147109	
-0.45641081	0.000142774	
-0.45593157	0.00018128	
-0.45548399	0.000203889	
-0.45494352	0.000237543	
-0.45451388	0.000231349	
-0.45408953	0.000231968	
-0.45383407	0.000230317	
-0.45358072	0.000232691	
-0.45332738	0.000228871	
-0.45304236	0.000227736	
-0.4526064	0.000238575	
-0.45231716	0.00023073	
-0.45186325	0.000230523	
-0.45123938	0.000226394	
-0.45057646	0.000223606	
-0.45013524	0.000217516	
-0.44981011	0.000207399	
-0.44957999	0.000209257	
-0.44936993	0.000207605	
-0.44919469	0.000213283	
-0.44910602	0.00020905	
-0.44905958	0.000212973	
-0.4490258	0.000210186	
-0.44900046	0.000218961	
-0.44898146	0.0002234	
-0.44897935	0.000224742	
-0.44889279	0.000160427	
-0.44885479	0.000221955	
-0.44882629	0.000221645	
-0.44871122	0.00022629	
-0.44858455	0.000218135	
-0.44848321	0.000221955	
-0.44845788	0.00021958	
-0.44840088	0.000226807	
-0.44835865	0.000219993	
-0.44816653	0.000220406	
-0.44802719	0.000225774	
-0.44791952	0.000225568	
-0.44782135	0.000227633	
-0.44766934	0.00021958	
-0.447568	0.000221232	
-0.44753633	0.000233517	
-0.44751522	0.000221645	
-0.44750044	0.000224019	
-0.44737799	0.000225568	
-0.44723443	0.000225155	
-0.4471922	0.000234652	
-0.4471542	0.000224019	
-0.44704442	0.000228871	
-0.44691141	0.000238988	
-0.44682274	0.000236201	
-0.44673618	0.000236201	
-0.4467024	0.000232588	
-0.44672351	0.000241672	
-0.44665701	0.000240434	
-0.44661373	0.000247144	
-0.44656728	0.000243221	
-0.4465715	0.000247867	
-0.44642794	0.000257674	
-0.44627171	0.000320853	
-0.44612392	0.000383723	
-0.44600886	0.000476428	
-0.44591597	0.000597522	
-0.44570696	0.000772402	
-0.44562462	0.001057123	
-0.44539978	0.001329043	
-0.4452446	0.001656401	
-0.44519182	0.001986545	
-0.44504404	0.002671819	
-0.44485614	0.004213425	
-0.44468724	0.005682661	
-0.44460279	0.005692572	
-0.44457534	0.005608126	
-0.44456057	0.005761223	
-0.44449512	0.006826504	
-0.44434417	0.0083838	
-0.44413304	0.009540651	
-0.44402115	0.010137348	
-0.44397681	0.010380569	
-0.44396415	0.010740756	
-0.44392192	0.010811782	
-0.44385436	0.011267357	
-0.44379419	0.012272967	
-0.4436538	0.013958175	
-0.44355457	0.015594343	
-0.44348279	0.017667196	
-0.44334134	0.022181662	
-0.44320833	0.02597007	
-0.44311544	0.028765879	
-0.4430711	0.029803701	
-0.44302043	0.031164646	
-0.4428832	0.034882962	
-0.44279664	0.040122756	
-0.44269953	0.044479477	
-0.4426383	0.057710075	
-0.44255491	0.075194366	
-0.44246518	0.084652344	
-0.44239445	0.093656398	
-0.44226989	0.11122792	
-0.4405503	0.11046491	
-0.4403983	0.084587823	
-0.44032862	0.084709536	
-0.44031174	0.085060538	
-0.44026951	0.087846744	
-0.44006894	0.11892047	
-0.43810447	0.11399637	
-0.43806436	0.10746077	
-0.43796091	0.08620624	
-0.43779201	0.072109911	
-0.43772234	0.068256667	
-0.43767167	0.062700245	
-0.43762945	0.055969842	
-0.43755345	0.052735489	
-0.43745211	0.045256631	
-0.43723676	0.035936579	
-0.43696758	0.027946297	
-0.43687891	0.026731635	
-0.43685885	0.026010745	
-0.43680713	0.025304	
-0.43678179	0.024824782	
-0.43664457	0.022262907	
-0.43645456	0.018037089	
-0.43632366	0.016293967	
-0.43628144	0.015686015	
-0.43624238	0.014998059	
-0.43620965	0.013236561	
-0.43611676	0.012094061	
-0.43597953	0.010349908	
-0.43582541	0.008099182	
-0.4356544	0.006415423	
-0.43555518	0.004870101	
-0.43543273	0.003843327	
-0.435324	0.002908227	
-0.43522055	0.002239988	
-0.43504321	0.001550069	
-0.43483842	0.00085437	
-0.43445629	0.000357089	
-0.43410055	0.000240847	
-0.43392004	0.000257674	
-0.43365086	0.000234859	
-0.43345451	0.000229078	
-0.43328561	0.000210702	
-0.43322439	0.000192223	
-0.43321594	0.000193049	
-0.43312305	0.000197385	
-0.43282748	0.000174673	
-0.43247279	0.000165795	
-0.43211917	0.000157536	
-0.43175181	0.000133482	
-0.43153858	0.000133689	
-0.43151536	0.000122849	
-0.43147524	9.9931e-005	
-0.43133801	8.2175e-005	
-0.43102133	0.000119236	
-0.4308271	0.000127908	
-0.43064764	0.00013307	
-0.4302824	0.000163524	
-0.42984644	0.000135341	
-0.42953609	0.000130076	
-0.4292933	0.000115933	
-0.42907798	0.00011872	
-0.42873808	0.000109738	
-0.42833906	0.000132553	
-0.42770041	0.00012956	
-0.4271895	0.000138128	
-0.42680737	0.000100551	
-0.42643579	9.2085e-005	
-0.42618139	6.8238e-005	
-0.42592804	8.6717e-005	
-0.42568208	7.9284e-005	
-0.42540129	8.5169e-005	
-0.42523767	9.033e-005	
-0.42496427	8.6717e-005	
-0.42454097	8.8472e-005	
-0.42402583	9.9518e-005	
-0.42351808	8.5685e-005	
-0.42310112	5.6366e-005	
-0.42284144	8.8885e-005	
-0.42255431	8.2278e-005	
-0.42209195	0.000144425	
-0.42166549	8.8988e-005	
-0.42119363	9.6834e-005	
-0.42094873	7.5568e-005	
-0.42084317	9.8279e-005	
-0.42064894	7.4432e-005	
-0.42027419	0.000109016	
-0.41986567	0.000111803	
-0.41906869	8.362e-005	
-0.41808169	8.1555e-005	
-0.41737232	8.6098e-005	
-0.41705564	7.8252e-005	
-0.41690996	8.2794e-005	
-0.4167094	7.98e-005	
-0.41650883	7.5155e-005	
-0.41624704	7.4535e-005	
-0.41579524	7.4845e-005	
-0.4153635	6.2251e-005	
-0.41492647	6.8754e-005	
-0.41453801	6.7619e-005	
-0.41411893	5.7502e-005	
-0.41372413	5.3992e-005	
-0.41320477	2.4157e-005	
-0.41230645	5.1101e-005	
-0.41158019	9.1053e-005	
-0.41129517	0.000106125	
-0.41065442	7.9697e-005	
-0.40968748	6.638e-005	
-0.40859492	6.7412e-005	
-0.40797002	7.2677e-005	
-0.40752878	8.9504e-005	
-0.40725643	5.2856e-005	
-0.40687958	4.4391e-005	
-0.40638766	5.8741e-005	
-0.4056804	7.3916e-005	
-0.40509243	0.000100344	
-0.40445695	6.9477e-005	
-0.40396926	7.7116e-005	
-0.40343195	9.4047e-005	
-0.40268669	7.66e-005	
-0.40204699	7.6394e-005	
-0.40156247	7.2368e-005	
-0.40092277	6.0805e-005	
-0.40021657	5.9566e-005	
-0.39953464	4.852e-005	
-0.39891394	4.4288e-005	
-0.39821619	4.7385e-005	
-0.3973295	6.4935e-005	
-0.39620106	5.8431e-005	
-0.39545157	5.3166e-005	
-0.39476437	3.5616e-005	
-0.39408667	4.8417e-005	
-0.39343852	5.1308e-005	
-0.39251909	2.5705e-005	
-0.39154476	4.9036e-005	
-0.39045959	6.1115e-005	
-0.38927414	5.6676e-005	
-0.38817209	5.4714e-005	
-0.38725582	5.6676e-005	
-0.38679346	4.9553e-005	
-0.3862361	3.6029e-005	
-0.38565129	3.541e-005	
-0.38513193	4.6043e-005	
-0.38436872	6.2973e-005	
-0.38356646	5.6573e-005	
-0.38274414	5.6469e-005	
-0.38188276	4.9346e-005	
-0.38092638	4.9862e-005	
-0.38017162	4.6146e-005	
-0.3795108	4.2636e-005	
-0.37855759	5.1514e-005	
-0.3772518	4.8624e-005	
-0.37595764	5.1721e-005	
-0.37500654	6.1528e-005	
-0.37433939	6.638e-005	
-0.37388126	4.8624e-005	
-0.37352974	5.1617e-005	
-0.37320461	5.1514e-005	
-0.37269581	4.4184e-005	
-0.37153569	4.6352e-005	
-0.37039669	4.7901e-005	
-0.36910884	5.4405e-005	
-0.36804373	3.5306e-005	
-0.36699129	4.4081e-005	
-0.36610143	5.4818e-005	
-0.36535934	4.3255e-005	
-0.36474391	5.5334e-005	
-0.36409577	3.1796e-005	
-0.36347613	5.3372e-005	
-0.36255563	4.7178e-005	
-0.36131952	4.3565e-005	
-0.36021324	4.5114e-005	
-0.35924946	4.1913e-005	
-0.35823608	4.7694e-005	
-0.35711608	4.6146e-005	
-0.35591585	4.15e-005	
-0.35483701	4.3462e-005	
-0.35367479	4.6559e-005	
-0.35293797	4.3049e-005	
-0.352369	4.3875e-005	
-0.35177786	3.8919e-005	
-0.35115399	4.6146e-005	
-0.3505164	4.2223e-005	
-0.3497627	4.2429e-005	
-0.34870392	3.7164e-005	
-0.34699066	3.83e-005	
-0.34562576	4.4288e-005	
-0.34456911	3.2416e-005	
-0.34372885	4.0365e-005	
-0.34328971	5.1101e-005	
-0.34280836	3.8507e-005	
-0.34216971	3.3964e-005	
-0.34151101	4.0468e-005	
-0.34101382	3.7681e-005	
-0.34065808	3.6958e-005	
-0.34016511	3.0661e-005	
-0.33965208	4.0158e-005	
-0.33911267	4.1397e-005	
-0.33817106	2.9938e-005	
-0.33746802	3.6648e-005	
-0.3366077	3.799e-005	
-0.33559009	3.541e-005	
-0.3342611	3.0557e-005	
-0.33272941	4.4081e-005	
-0.33084092	4.0055e-005	
-0.32914667	2.9628e-005	
-0.32743553	3.5822e-005	
-0.32622263	3.4893e-005	
-0.32501712	3.7371e-005	
-0.323781	3.2519e-005	
-0.32272434	3.3758e-005	
-0.32185874	3.128e-005	
-0.32098364	4.1604e-005	
-0.32004837	3.0145e-005	
-0.31925349	3.9126e-005	
-0.31839845	2.075e-005	
-0.31766269	4.0055e-005	
-0.31682664	2.6222e-005	
-0.31579743	3.2829e-005	
-0.31450325	3.0764e-005	
-0.31328719	3.83e-005	
-0.31184101	3.2312e-005	
-0.310664	3.19e-005	
-0.30931704	3.0145e-005	
-0.30769457	3.2932e-005	
-0.30628111	4.2842e-005	
-0.30475364	3.7061e-005	
-0.30361253	3.8713e-005	
-0.30268361	3.7474e-005	
-0.30164172	2.1266e-005	
-0.30091757	1.3214e-005	
-0.30010581	3.923e-006	
-0.2987863	2.7151e-005	
-0.29716171	3.7268e-005	
-0.29554558	2.0234e-005	
-0.29432846	3.5203e-005	
-0.29341535	6.9477e-005	
-0.29222674	3.4171e-005	
-0.29095895	2.3434e-005	
-0.28934598	4.2223e-005	
-0.2878449	7.226e-006	
-0.28639449	2.9422e-005	
-0.28522171	5.2546e-005	
-0.28418404	3.3345e-005	
-0.28309254	2.9215e-005	
-0.28180999	4.1397e-005	
-0.28062876	3.5822e-005	
-0.27954148	-4.7694e-005	
-0.27833492	-4.5527e-005	
-0.27727509	1.5176e-005	
-0.27664594	4.3462e-005	
-0.27582679	3.5616e-005	
-0.27465084	2.7151e-005	
-0.27315926	4.3255e-005	
-0.27155368	4.8417e-005	
-0.27009905	2.5189e-005	
-0.2685188	4.0984e-005	
-0.26687416	6.638e-005	
-0.26445787	3.2725e-005	
-0.26346137	2.6118e-005	
-0.26222103	2.8596e-005	
-0.26111582	3.3551e-005	
-0.260303	3.7784e-005	
-0.25945745	3.5513e-005	
-0.25894443	5.6056e-005	
-0.25808199	3.541e-005	
-0.25686804	3.6855e-005	
-0.25519068	2.746e-005	
-0.25359565	3.159e-005	
-0.25181589	2.5912e-005	
-0.25029792	4.3772e-005	
-0.24943866	3.1074e-005	
-0.24861423	4.181e-005	
-0.24791963	3.4171e-005	
-0.24601215	8.878e-006	
-0.2446578	-4.6765e-005	
-0.24397587	-8.4859e-005	
-0.24303744	6.1012e-005	
-0.24206311	7.0096e-005	
-0.24094627	0.000124501	
-0.23878862	4.6043e-005	
-0.23652644	2.9422e-005	
-0.23449228	8.878e-006	
-0.23294793	2.5912e-005	
-0.23165058	2.746e-005	
-0.23024662	3.3655e-005	
-0.22879305	3.3551e-005	
-0.22734581	3.097e-005	
-0.22573179	4.2017e-005	
-0.22456956	3.9332e-005	
-0.22370185	4.0674e-005	
-0.22289219	4.4907e-005	
-0.22114833	3.9436e-005	
-0.22029012	4.6456e-005	
-0.21889143	3.9539e-005	
-0.21785482	4.6972e-005	
-0.21717818	5.1824e-005	
-0.21685094	4.8004e-005	
-0.2167496	4.4907e-005	
-0.21672004	4.4597e-005	
-0.21669682	5.2134e-005	
-0.21661237	4.9966e-005	
-0.21651103	4.9862e-005	
-0.21637169	4.852e-005	
-0.21610779	5.4921e-005	
-0.21585761	6.0702e-005	
-0.21572249	4.7385e-005	
-0.21548181	5.5953e-005	
-0.21511446	6.1218e-005	
-0.21470488	6.927e-005	
-0.2143692	5.9463e-005	
-0.21419186	6.7206e-005	
-0.21395857	6.7309e-005	
-0.21366299	6.8032e-005	
-0.21306974	7.8768e-005	
-0.21277839	8.2381e-005	
-0.21264961	8.6407e-005	
-0.2125166	9.1053e-005	
-0.2119698	9.3737e-005	
-0.21149583	0.000108087	
-0.21118548	0.000108809	
-0.21093424	0.000113352	
-0.21073368	0.00011521	
-0.21050461	0.000132553	
-0.21015626	0.00013596	
-0.20953978	0.000145561	
-0.20883042	0.000171886	
-0.20821289	0.000179628	
-0.2079321	0.00020234	
-0.20753519	0.000216896	
-0.20703377	0.000270475	
-0.20611961	0.000355334	
-0.20530785	0.000483448	
-0.20455203	0.000646662	
-0.20370543	0.000858397	
-0.20309529	0.001076222	
-0.20282611	0.001210943	
-0.20251154	0.001335238	
-0.20231097	0.001462629	
-0.20183278	0.00167488	
-0.20109174	0.001928321	
-0.20072228	0.002148316	
-0.20023881	0.002344772	
-0.19988413	0.002514696	
-0.19946083	0.002794152	
-0.19902169	0.003042329	
-0.19860367	0.003272955	
-0.19811913	0.003494497	
-0.19773488	0.003616726	
-0.19746676	0.003717587	
-0.19703818	0.003887924	
-0.19645654	0.004089851	
-0.19558672	0.00432275	
-0.19518136	0.004448697	
-0.19490057	0.004574333	
-0.19438438	0.004734863	
-0.19356417	0.00496487	
-0.19282946	0.00524443	
-0.19216654	0.005462668	
-0.1918013	0.005584485	
-0.19142445	0.005710947	
-0.19116477	0.005854444	
-0.19074886	0.005950452	
-0.19060529	0.006017864	
-0.1901556	0.006178704	
-0.18921294	0.006444019	
-0.18785966	0.006730186	
-0.18725691	0.006893503	
-0.18694022	0.007008197	
-0.18645887	0.007215595	
-0.1860134	0.007388927	
-0.18575266	0.007503002	
-0.1853072	0.007667764	
-0.18503485	0.007807234	
-0.18484906	0.007888996	
-0.18476672	0.007931219	
-0.18469283	0.007980256	
-0.18427903	0.008195603	
-0.18369317	0.008360159	
-0.18358233	0.008427574	
-0.18315692	0.008588929	
-0.18278218	0.00874502	
-0.18254466	0.008853004	
-0.18219737	0.009001352	
-0.18184585	0.009214635	
-0.18142677	0.009445572	
-0.1810932	0.009708924	
-0.18066357	0.00998167	
-0.18022866	0.010304691	
-0.17991408	0.010502491	
-0.1796734	0.010574858	
-0.17945595	0.010747467	
-0.17920683	0.010955691	
-0.17891442	0.011126235	
-0.17878353	0.011243613	
-0.17868219	0.011370695	
-0.17850062	0.011491892	
-0.17845629	0.011584495	
-0.17824939	0.011847227	
-0.1778852	0.012061026	
-0.17771103	0.012208961	
-0.17752101	0.012411508	
-0.17723599	0.012747023	
-0.17698581	0.013019459	
-0.17667124	0.013338351	
-0.17635456	0.013632779	
-0.17607799	0.013858863	
-0.17569797	0.014180646	
-0.17549318	0.01447662	
-0.17518811	0.014729959	
-0.17498754	0.014903083	
-0.17468141	0.015192966	
-0.17452096	0.015474178	
-0.1743584	0.015712753	
-0.1741515	0.016038255	
-0.17383376	0.016356218	
-0.17356986	0.016702261	
-0.17331018	0.017194072	
-0.17302094	0.017717059	
-0.17272959	0.017948927	
-0.17260714	0.018132684	
-0.17241713	0.018383442	
-0.17233268	0.01859115	
-0.17218912	0.018869161	
-0.17183549	0.019297895	
-0.1713668	0.019804364	
-0.170934	0.020154334	
-0.17065321	0.020330658	
-0.17044631	0.020480245	
-0.17016974	0.020697245	
-0.16968099	0.021039985	
-0.16917219	0.021370336	
-0.16861693	0.021664761	
-0.16825908	0.02184728	
-0.16800785	0.021920371	
-0.16766689	0.022093189	
-0.16717392	0.02230895	
-0.1668678	0.022487443	
-0.1663875	0.022756059	
-0.16600748	0.023047284	
-0.16565279	0.023248696	
-0.16550078	0.023333349	
-0.16540789	0.023447526	
-0.16513554	0.023583383	
-0.16496031	0.023737513	
-0.16451379	0.023932626	
-0.16401132	0.024191746	
-0.16367563	0.024405236	
-0.16330828	0.024567934	
-0.16296521	0.024698732	
-0.16262319	0.024900969	
-0.1623044	0.025040129	
-0.16201094	0.025182286	
-0.16145357	0.025410538	
-0.16088249	0.025748529	
-0.16046869	0.025922066	
-0.16035257	0.025952624	
-0.16027868	0.02602303	
-0.16019845	0.026118728	
-0.15999367	0.026215874	
-0.15959148	0.026405413	
-0.15919246	0.026510093	
-0.15902356	0.026604243	
-0.15872904	0.026751352	
-0.15814318	0.027074064	
-0.15750031	0.027394921	
-0.15722374	0.027465636	
-0.15710974	0.027511885	
-0.1570084	0.027682945	
-0.15642992	0.027896228	
-0.15599606	0.028047364	
-0.15586094	0.028043131	
-0.15579761	0.028148431	
-0.15550098	0.028278919	
-0.15532047	0.028302147	
-0.1552318	0.028415914	
-0.15492778	0.028616292	
-0.1545541	0.028713333	
-0.15438098	0.028746987	
-0.15424903	0.028731812	
-0.15405479	0.028783429	
-0.15385423	0.028918976	
-0.15341087	0.029236526	
-0.15266983	0.029459207	
-0.15251677	0.029481196	
-0.1524091	0.029496578	
-0.15232254	0.029569564	
-0.1520808	0.029735876	
-0.1519383	0.029812476	
-0.1518549	0.029830129	
-0.15174512	0.02988123	
-0.15154561	0.029875449	
-0.15154983	0.029805146	
-0.15148861	0.02983271	
-0.1511962	0.029919633	
-0.15094391	0.03012858	
-0.15038972	0.030444687	
-0.14979013	0.030613372	
-0.14932144	0.030669222	
-0.1489657	0.030715988	
-0.14856879	0.030788149	
-0.14795231	0.030809415	
-0.14759024	0.030805079	
-0.14714055	0.030811686	
-0.14670352	0.030821494	
-0.14653357	0.030788768	
-0.14648185	0.030786704	
-0.14621161	0.030715059	
-0.14592448	0.030640214	
-0.14558036	0.030610069	
-0.14522039	0.030517364	
-0.14490582	0.030378305	
-0.1447327	0.030312854	
-0.14447091	0.030165642	
-0.14419856	0.030051051	
-0.14396211	0.029805249	
-0.14339313	0.029349052	
-0.14311867	0.029186664	
-0.14301733	0.029151254	
-0.14275343	0.028777958	
-0.14227102	0.028235148	
-0.14207679	0.028179814	
-0.14193006	0.027996056	
-0.14167143	0.027775134	
-0.14139908	0.027486593	
-0.14122174	0.027268871	
-0.14097262	0.027138173	
-0.14084594	0.026951421	
-0.14063693	0.026707168	
-0.14042581	0.026557787	
-0.14016508	0.026283493	
-0.1399814	0.026039341	
-0.1398315	0.025903897	
-0.13966049	0.025657372	
-0.13953804	0.025565184	
-0.13942404	0.025397324	
-0.13927414	0.025205617	
-0.13917491	0.025099283	
-0.13911158	0.025009262	
-0.13893212	0.024765215	
-0.13861227	0.024435587	
-0.13840748	0.02428889	
-0.13833993	0.024309331	
-0.13829559	0.024256371	
-0.13809714	0.024077052	
-0.13757355	0.023360809	
-0.13588985	0.021720921	
-0.13527126	0.02123675	
-0.13522481	0.021321816	
-0.13519525	0.021328939	
-0.13517625	0.021335236	
-0.13515936	0.021322125	
-0.13515303	0.021315518	
-0.13514247	0.021308808	
-0.13513086	0.021333894	
-0.13512558	0.021307363	
-0.13511714	0.021278973	
-0.13511292	0.021290432	
-0.13510869	0.021321093	
-0.13510342	0.021337817	
-0.13509814	0.021329558	
-0.13509603	0.021331417	
-0.13509497	0.021335546	
-0.1350918	0.02133472	
-0.13508653	0.021332862	
-0.13508653	0.021329765	
-0.13508336	0.021364658	
-0.13508125	0.021353406	
-0.13507702	0.021332655	
-0.13507808	0.021328526	
-0.13507386	0.021359187	
-0.13507069	0.021356193	
-0.13506858	0.021348863	
-0.13506541	0.021304266	
-0.13502636	0.021146626	
-0.13476773	0.020880796	
-0.13440038	0.020330245	
-0.13361289	0.01916307	
-0.13292991	0.017788084	
-0.13253934	0.016540492	
-0.13218465	0.015393035	
-0.13182152	0.014396819	
-0.13123355	0.013218289	
-0.13073108	0.012292168	
-0.13045451	0.011653559	
-0.13018849	0.011137591	
-0.1300576	0.010964363	
-0.12998582	0.010639586	
-0.12990242	0.010482564	
-0.12978947	0.010291477	
-0.12969025	0.010175648	
-0.12962374	0.00976529	
-0.12944007	0.009448153	
-0.1293609	0.00928597	
-0.12923528	0.008531324	
-0.12902627	0.007667145	
-0.12877187	0.007073235	
-0.12854491	0.006546221	
-0.12825567	0.005870445	
-0.12795166	0.00514677	
-0.12759169	0.004651243	
-0.12740379	0.004340404	
-0.12712934	0.004037201	
-0.12696044	0.003771372	
-0.1267831	0.003553856	
-0.12668387	0.003314971	
-0.12649175	0.003034276	
-0.1262574	0.002642501	
-0.126041	0.002324951	
-0.12586366	0.002176706	
-0.1255702	0.001806298	
-0.12503816	0.001350207	
-0.12482493	0.001152306	
-0.12470459	0.001150241	
-0.12467081	0.001104302	
-0.1246117	0.000955231	
-0.1243953	0.000849725	
-0.12426862	0.000797178	
-0.1241145	0.000707984	
-0.12374715	0.000520716	
-0.12314651	0.000346249	
-0.12277599	0.00027161	
-0.12261237	0.000259532	
-0.12251525	0.000244873	
-0.12200856	0.000189332	
-0.12141742	0.000158775	
-0.12117041	0.000144942	
-0.12105429	0.00013947	
-0.12082206	0.000141122	
-0.12060777	0.000121817	
-0.12036498	0.000110977	
-0.12004196	0.000102719	
-0.11981184	9.9931e-005	
-0.11961127	9.3634e-005	
-0.11943815	9.2085e-005	
-0.11927031	9.2911e-005	
-0.11901696	9.0021e-005	
-0.11880162	8.4549e-005	
-0.11862639	7.8045e-005	
-0.11840049	7.4535e-005	
-0.11817564	7.5155e-005	
-0.11799091	7.9078e-005	
-0.11768267	7.1335e-005	
-0.11735227	6.9787e-005	
-0.11706725	7.3916e-005	
-0.11676957	7.7426e-005	
-0.11659223	6.4935e-005	
-0.11638744	6.9374e-005	
-0.11608553	6.638e-005	
-0.1159293	7.3297e-005	
-0.11576885	6.7515e-005	
-0.11554928	6.669e-005	
-0.11513654	7.2264e-005	
-0.11491381	5.905e-005	
-0.11480719	7.7116e-005	
-0.11457285	6.5038e-005	
-0.11430051	6.0908e-005	
-0.11418439	6.0496e-005	
-0.1139796	5.6469e-005	
-0.11357108	6.6999e-005	
-0.11325651	5.7811e-005	
-0.11299261	6.5348e-005	
-0.1128216	6.607e-005	
-0.11260414	6.1528e-005	
-0.11223046	6.2044e-005	
-0.11179871	7.0303e-005	
-0.11151158	6.2354e-005	
-0.11139969	6.7206e-005	
-0.11124346	7.0509e-005	
-0.11074099	6.5967e-005	
-0.11032191	6.4522e-005	
-0.1101129	6.4109e-005	
-0.11003479	5.7089e-005	
-0.10998834	6.287e-005	
-0.109811	6.4728e-005	
-0.10955765	7.2161e-005	
-0.10937186	6.4522e-005	
-0.10908474	6.7412e-005	
-0.10868044	6.7825e-005	
-0.10828142	6.1631e-005	
-0.10803441	6.7825e-005	
-0.10772406	7.1748e-005	
-0.10740104	6.8858e-005	
-0.10724903	6.8341e-005	
-0.10721947	6.7825e-005	
-0.10695663	7.0509e-005	
-0.10645732	6.4315e-005	
-0.10630637	6.9064e-005	
-0.10621137	7.6394e-005	
-0.1060488	7.0613e-005	
-0.10568778	6.638e-005	
-0.10530143	8.0833e-005	
-0.10489924	7.3297e-005	
-0.10464167	6.4212e-005	
-0.10454878	7.1645e-005	
-0.10446222	7.4123e-005	
-0.10424476	7.4948e-005	
-0.10393862	6.8961e-005	
-0.10385206	7.1645e-005	
-0.10370216	7.278e-005	
-0.10347943	7.66e-005	
-0.10325986	7.1955e-005	
-0.10306352	8.1968e-005	
-0.10281439	7.9594e-005	
-0.10241115	7.7323e-005	
-0.10209658	7.7116e-005	
-0.10191712	8.1762e-005	
-0.10171973	8.073e-005	
-0.10150227	8.3414e-005	
-0.10131648	7.3916e-005	
-0.10096602	7.9904e-005	
-0.10063034	8.5169e-005	
-0.09994419	8.3827e-005	
-0.09907331	8.9814e-005	
-0.09811271	8.7027e-005	
-0.09725027	9.3944e-005	
-0.09652823	9.3737e-005	
-0.09606693	7.66e-005	
-0.09575025	9.1879e-005	
-0.09531956	0.000112216	
-0.09489098	0.000103028	
-0.09466192	0.000107364	
-0.09429034	0.00010819	
-0.09376676	0.000117584	
-0.0931334	0.000116346	
-0.09239342	0.000115623	
-0.09168405	0.000112423	
-0.09126603	0.000121094	
-0.0908554	0.000115933	
-0.09045215	0.000116552	
-0.08991379	0.000121094	
-0.08937438	0.000117688	
-0.08884868	0.000120165	
-0.08840533	0.000118823	
-0.08797675	0.000125637	
-0.08732544	0.000123675	
-0.08650206	0.000124295	
-0.08559318	0.000121094	
-0.08460302	0.000126463	
-0.08335423	0.000128734	
-0.08221204	0.000129043	
-0.08120182	0.000130489	
-0.08039217	0.000139573	
-0.07982953	0.000138231	
-0.07949279	0.000135237	
-0.07905154	0.000133276	
-0.07857546	0.000140812	
-0.07810044	0.000141122	
-0.07730451	0.000149381	
-0.07599239	0.000150826	
-0.07491039	0.000155162	
-0.07399412	0.000166621	
-0.07330586	0.000164246	
-0.0725796	0.000171886	
-0.07186495	0.00017839	
-0.07102996	0.000178802	
-0.07003663	0.000184893	
-0.06902325	0.000192739	
-0.06743667	0.000195217	
-0.06614777	0.000208431	
-0.06473853	0.000211734	
-0.06293238	0.000215761	
-0.06122861	0.000223503	
-0.06031551	0.00022309	
-0.06002416	0.000227633	
-0.0596547	0.000232588	
-0.05882604	0.000244976	
-0.05770393	0.000241156	
-0.05642453	0.000259119	
-0.05551776	0.00027543	
-0.05384884	0.000277495	
-0.05211448	0.00028947	
-0.0512911	0.000290193	
-0.0512341	0.000301136	
-0.05121298	0.000300207	
-0.05120032	0.000291225	
-0.05098708	0.000298864	
-0.05055956	0.000302271	
-0.05043394	0.000308259	
-0.05039911	0.000309807	
-0.05039066	0.000312698	
-0.05037589	0.000306091	
-0.0503685	0.000308569	
-0.05036111	0.000300103	
-0.05035688	0.000308259	
-0.05034844	0.000309498	
-0.05034422	0.000306504	
-0.05033999	0.000300516	
-0.05033577	0.000304955	
-0.05033366	0.000310117	
-0.05033366	0.000314763	
-0.05033155	0.000306091	
-0.05032944	0.000312285	
-0.05032733	0.000306917	
-0.05032522	0.000297213	
-0.05032522	0.000258809	
-0.0503231	0.000302168	
-0.0503231	0.000323125	
-0.05031994	0.000331177	
-0.0503041	0.000325293	
-0.05029883	0.000311459	
-0.05029355	0.000317447	
-0.0502851	0.000306504	
-0.05028299	0.000308775	
-0.05027877	0.000304646	
-0.05027455	0.000311253	
-0.05027455	0.000306917	
-0.05026821	0.000299484	
-0.05027032	0.000301032	
-0.05027032	0.00030382	
-0.0502661	0.000308672	
-0.05026399	0.000304129	
-0.05026188	0.000306504	
-0.05026399	0.000309601	
-0.05025977	0.00031786	
-0.05025977	0.000312904	
-0.05025766	0.000308569	
-0.05025766	0.000316931	
-0.05025555	0.000298658	
-0.05025555	0.00030382	
-0.05025343	0.000322505	
