#INFO
#COMMENT: 

#DATA:
-0.47020975	5.988e-006	
-0.47020764	1.5072e-005	
-0.47020764	1.4453e-005	
-0.47021081	3.304e-006	
-0.47020764	9.601e-006	
-0.47020764	2.684e-006	
-0.47020553	-0.000483242	
-0.47020764	-9.2292e-005	
-0.47020764	-5.5953e-005	
-0.47020342	-3.4584e-005	
-0.47020553	-1.755e-005	
-0.47020764	-2.6944e-005	
-0.47020553	2.7873e-005	
-0.47019708	3.0145e-005	
-0.47019075	2.5705e-005	
-0.47015697	1.9924e-005	
-0.47009786	2.9112e-005	
-0.46989729	5.9153e-005	
-0.46962494	4.3668e-005	
-0.46922064	1.1149e-005	
-0.46842894	-5.3372e-005	
-0.46766045	-0.000137612	
-0.46726143	-2.9835e-005	
-0.4668318	-9.498e-006	
-0.46632088	3.2209e-005	
-0.46572341	-7.536e-006	
-0.46491587	3.9539e-005	
-0.46420438	0.000195939	
-0.46339051	-8.4343e-005	
-0.46263469	-0.000269649	
-0.46207627	-6.4109e-005	
-0.46155269	-4.8211e-005	
-0.46095733	1.239e-006	
-0.46049075	4.3255e-005	
-0.45981621	0.000107158	
-0.45918918	5.9153e-005	
-0.45840381	-7.639e-006	
-0.45794462	-2.9732e-005	
-0.45737248	-5.1617e-005	
-0.45649737	-5.554e-005	
-0.45601602	4.4907e-005	
-0.45558322	0.000134928	
-0.45529187	-5.7089e-005	
-0.4550723	-0.000193255	
-0.45482846	4.4804e-005	
-0.45452022	6.9167e-005	
-0.45421198	9.0021e-005	
-0.45373062	8.8575e-005	
-0.45332316	0.000108396	
-0.45293364	0.000156917	
-0.45280907	0.000138231	
-0.45236361	0.000158878	
-0.4518928	0.000101893	
-0.451384	-3.2312e-005	
-0.45102615	-2.137e-005	
-0.45059335	7.4329e-005	
-0.45025977	0.000100551	
-0.44992412	6.4109e-005	
-0.44941004	3.6029e-005	
-0.44902791	3.7474e-005	
-0.44867956	3.8713e-005	
-0.44837765	-0.000107571	
-0.44806519	-5.1514e-005	
-0.44763978	4.3049e-005	
-0.44733788	7.2058e-005	
-0.44719115	8.9814e-005	
-0.44702119	2.9628e-005	
-0.44688607	0.000103338	
-0.44662745	0.000146903	
-0.44624215	0.00012223	
-0.44582096	0.000105609	
-0.44492581	0.000920337	
-0.44432622	0.001316552	
-0.44365169	0.002909569	
-0.44317666	0.007294879	
-0.44277342	0.016528413	
-0.44246412	0.027352594	
-0.44211366	0.039016903	
-0.44183076	0.045886776	
-0.44154152	0.048909909	
-0.44118472	0.051294017	
-0.4409071	0.05381192	
-0.44066642	0.052784525	
-0.44049963	0.050736446	
-0.44035502	0.049919857	
-0.44024629	0.049574434	
-0.44015973	0.049651654	
-0.44006894	0.050395668	
-0.43991483	0.051829498	
-0.43977549	0.053300905	
-0.43961083	0.057067333	
-0.43932687	0.068515373	
-0.43892679	0.076739383	
-0.43860061	0.07673484	
-0.43835465	0.073548182	
-0.43808336	0.066593445	
-0.43782579	0.056557763	
-0.43760623	0.04656978	
-0.43743733	0.04044392	
-0.43732543	0.0363649	
-0.43716709	0.030204355	
-0.43693591	0.023111394	
-0.43669101	0.017779103	
-0.43648411	0.014682574	
-0.43641444	0.013073244	
-0.43626032	0.011564467	
-0.43608298	0.009676198	
-0.43586553	0.007130633	
-0.43563329	0.004917692	
-0.43538733	0.003045219	
-0.43515088	0.001650516	
-0.43486375	0.000585444	
-0.43452384	0.000193772	
-0.43417972	6.4728e-005	
-0.43386092	-1.1666e-005	
-0.43353474	-1.3008e-005	
-0.4331885	4.3255e-005	
-0.43285915	-4.955e-006	
-0.43251924	0.000108293	
-0.43204738	0.000183758	
-0.43155125	7.2574e-005	
-0.43113956	0.000161356	
-0.43070254	0.000115003	
-0.43015045	3.4067e-005	
-0.42953186	1.9821e-005	
-0.42881197	2.8493e-005	
-0.428262	2.395e-005	
-0.42770041	8.156e-006	
-0.42724017	1.9615e-005	
-0.4268517	3.1383e-005	
-0.42647274	7.8355e-005	
-0.42612439	4.3462e-005	
-0.42576126	-0.000177977	
-0.42525245	-0.000154646	
-0.42491993	2.3847e-005	
-0.42426546	6.2354e-005	
-0.42353286	0.000107674	
-0.42262609	-1.0427e-005	
-0.4217056	1.6311e-005	
-0.42049904	0.000161149	
-0.41971683	0.000240537	
-0.41880373	0.000123056	
-0.41803208	7.9491e-005	
-0.41722876	8.3001e-005	
-0.41641594	0.000235891	
-0.41523893	0.000200482	
-0.41398592	8.5478e-005	
-0.41268858	1.7756e-005	
-0.41103338	1.961e-006	
-0.40895911	8.9608e-005	
-0.40772301	4.9449e-005	
-0.40676135	-1.8066e-005	
-0.40590842	9.6421e-005	
-0.40462374	0.000163627	
-0.40359663	2.9009e-005	
-0.40280914	2.9422e-005	
-0.40215994	-2.271e-006	
-0.40132812	1.445e-006	
-0.39999489	9.085e-006	
-0.39876616	1.786e-005	
-0.39698749	-1.7963e-005	
-0.39523623	-4.129e-006	
-0.39363276	-5.368e-006	
-0.39220663	-1.4659e-005	
-0.3914962	-3.51e-006	
-0.39052293	-1.435e-005	
-0.38938604	2.9628e-005	
-0.38836632	2.4776e-005	
-0.38729487	2.684e-006	
-0.38644194	-8.259e-006	
-0.38503059	-1.4246e-005	
-0.38347356	7.8045e-005	
-0.38192498	7.433e-006	
-0.38045452	1.1149e-005	
-0.37858715	-6.5038e-005	
-0.37607376	-7.5981e-005	
-0.37474897	0.000146284	
-0.37376408	0.000247144	
-0.37297871	0.000104474	
-0.37158425	6.2251e-005	
-0.37030907	0.000100757	
-0.36894206	8.4033e-005	
-0.36738081	-1.9511e-005	
-0.3658787	-6.5451e-005	
-0.36459824	-1.8789e-005	
-0.36291032	-4.0365e-005	
-0.36098383	-6.2354e-005	
-0.3590584	-4.8624e-005	
-0.35693662	-3.4997e-005	
-0.35493624	6.813e-006	
-0.35344889	7.0819e-005	
-0.35229299	0.000113558	
-0.35096609	0.000152994	
-0.34998649	9.4563e-005	
-0.34870392	0.000105506	
-0.34717856	7.123e-006	
-0.34589705	1.3421e-005	
-0.34480452	4.0778e-005	
-0.34361695	2.3538e-005	
-0.34268591	-1.2904e-005	
-0.34151101	-1.7447e-005	
-0.34053668	-3.4997e-005	
-0.33957819	-6.4315e-005	
-0.33850252	-5.7915e-005	
-0.33715134	-1.0736e-005	
-0.33608834	1.0014e-005	
-0.33519635	5.368e-006	
-0.33424421	2.2402e-005	
-0.33302709	8.465e-006	
-0.33145529	2.684e-006	
-0.32997427	1.0427e-005	
-0.32861253	6.091e-006	
-0.32712518	1.3214e-005	
-0.32600517	4.439e-006	
-0.32451571	2.684e-006	
-0.32301885	6.813e-006	
-0.32189674	-1.032e-006	
-0.32087385	-2.3641e-005	
-0.32004203	-5.1101e-005	
-0.31927672	-3.4893e-005	
-0.31837734	-1.5279e-005	
-0.31763524	1.0736e-005	
-0.31683931	-7.123e-006	
-0.3158671	-4.1604e-005	
-0.31491071	-9.0124e-005	
-0.31412006	-0.000213799	
-0.31329036	-0.000305265	
-0.31246276	-0.000350998	
-0.31174495	-0.000351721	
-0.31119075	-0.000386924	
-0.31066295	-0.000275224	
-0.3100792	-0.000175499	
-0.30940572	-4.233e-006	
-0.30829627	0.000112423	
-0.30716677	0.000160633	
-0.30609321	0.000159601	
-0.30492465	0.000142774	
-0.30403688	0.000111906	
-0.30316286	4.0365e-005	
-0.30234159	3.9023e-005	
-0.30165861	2.478e-006	
-0.30101258	1.2078e-005	
-0.30053122	2.746e-005	
-0.29988202	7.7839e-005	
-0.29911565	0.000184997	
-0.29839572	0.000138747	
-0.2974404	6.6173e-005	
-0.2964154	-3.2312e-005	
-0.29500405	-1.9511e-005	
-0.29384499	-0.000102202	
-0.29275876	-0.000115933	
-0.29131469	-9.7041e-005	
-0.29011024	-7.371e-005	
-0.28911902	-8.1968e-005	
-0.28823231	-8.5788e-005	
-0.28682729	-6.2044e-005	
-0.28525549	-2.7254e-005	
-0.28433183	8.878e-006	
-0.2835929	0.000129766	
-0.28302921	0.000107983	
-0.28216256	8.3207e-005	
-0.28135607	0.000103957	
-0.28049997	0.000105093	
-0.2798645	0.000100654	
-0.27912029	7.691e-005	
-0.27846159	7.7632e-005	
-0.27780922	5.8328e-005	
-0.2772128	6.7928e-005	
-0.27658577	8.2794e-005	
-0.27579406	3.3861e-005	
-0.27491263	2.9835e-005	
-0.27371029	2.395e-005	
-0.27246889	3.716e-006	
-0.27133833	1.3937e-005	
-0.27028167	7.7323e-005	
-0.26919861	7.7839e-005	
-0.26800894	5.4198e-005	
-0.267023	7.1232e-005	
-0.26593889	8.713e-005	
-0.26452965	2.137e-005	
-0.26400184	-2.478e-006	
-0.26340437	-9.085e-006	
-0.26256938	3.3655e-005	
-0.26190962	4.9656e-005	
-0.26106515	1.4556e-005	
-0.26023966	6.297e-006	
-0.25932022	1.4866e-005	
-0.25831317	8.26e-007	
-0.25753941	8.8988e-005	
-0.25645741	2.8286e-005	
-0.25506189	1.0323e-005	
-0.25385955	1.5898e-005	
-0.25275961	2.891e-006	
-0.25169661	2.044e-005	
-0.2503127	1.755e-005	
-0.24932043	5.265e-006	
-0.24830599	1.1253e-005	
-0.24708042	2.5293e-005	
-0.24605859	-4.8211e-005	
-0.24528694	-0.000112113	
-0.24459446	-3.2622e-005	
-0.24396637	7.4639e-005	
-0.24336468	9.1982e-005	
-0.2429171	1.9408e-005	
-0.24233862	7.4535e-005	
-0.24160075	6.813e-006	
-0.24088083	4.0158e-005	
-0.2401493	-4.8211e-005	
-0.2392098	-2.5912e-005	
-0.23768445	3.7164e-005	
-0.23628365	8.465e-006	
-0.23491031	3.304e-006	
-0.23351373	1.239e-006	
-0.23211927	4.955e-006	
-0.23105733	-1.693e-005	
-0.22979905	-7.949e-006	
-0.22842465	1.2285e-005	
-0.22724025	1.0633e-005	
-0.22647282	7.0406e-005	
-0.22564734	7.0922e-005	
-0.22459067	7.7013e-005	
-0.22395942	9.3737e-005	
-0.22321627	0.000227426	
-0.22250795	0.000323538	
-0.22126867	0.000413352	
-0.22051179	0.000571611	
-0.22025845	0.000621473	
-0.21991643	0.000760427	
-0.2189991	0.000948107	
-0.2182074	0.001290227	
-0.21766059	0.001604783	
-0.21724996	0.001936476	
-0.2169185	0.002331248	
-0.21641391	0.002831214	
-0.21585655	0.00342822	
-0.21543959	0.004107401	
-0.21496878	0.004929461	
-0.21425097	0.005943845	
-0.21375167	0.007126297	
-0.21325764	0.008490547	
-0.21243638	0.010537384	
-0.21153805	0.012745268	
-0.21094058	0.015007247	
-0.21028293	0.017730789	
-0.20942578	0.020618477	
-0.2084599	0.02330083	
-0.20777164	0.025093811	
-0.20733251	0.026642853	
-0.20680154	0.028232051	
-0.20589794	0.02978037	
-0.20507562	0.030595306	
-0.20475682	0.030883744	
-0.2041699	0.03084276	
-0.20382155	0.030675004	
-0.20343203	0.030385738	
-0.20295912	0.02955986	
-0.2022603	0.028056965	
-0.20158366	0.025795397	
-0.20084684	0.024398938	
-0.20040138	0.023406749	
-0.20013747	0.022861669	
-0.1998894	0.022110946	
-0.19969728	0.021413798	
-0.19942282	0.020180555	
-0.19906603	0.018815272	
-0.19879579	0.018047309	
-0.19856565	0.017235469	
-0.19826269	0.015792866	
-0.19756176	0.013546472	
-0.19704451	0.012611166	
-0.19661488	0.012022106	
-0.19612191	0.010454794	
-0.19533126	0.009172412	
-0.19506419	0.008708888	
-0.19481296	0.008171343	
-0.19425559	0.007240784	
-0.19363912	0.006351314	
-0.19297936	0.005493742	
-0.19229955	0.004539543	
-0.19174641	0.003540229	
-0.19144134	0.003362459	
-0.19113099	0.003117896	
-0.19051451	0.002716726	
-0.18950957	0.0020234	
-0.18845713	0.001645664	
-0.18756831	0.001496077	
-0.18692967	0.001360737	
-0.18627519	0.001081383	
-0.18571044	0.00068042	
-0.18529664	0.000699312	
-0.18507074	0.00109563	
-0.18475617	0.000968548	
-0.18443843	0.000693944	
-0.18394229	0.000676703	
-0.18335115	0.000609807	
-0.1827389	0.000678562	
-0.18205803	0.000497901	
-0.18153022	0.000442257	
-0.18083458	0.000390227	
-0.18030994	0.00033448	
-0.17963118	0.000462079	
-0.17894187	0.000416036	
-0.17846051	0.000315795	
-0.17804671	0.000243634	
-0.17742811	0.000131315	
-0.17682536	0.000178183	
-0.17602943	0.000223297	
-0.17550901	0.000126875	
-0.17520711	0.000189539	
-0.17489465	0.000140915	
-0.17457585	0.000179628	
-0.17423172	8.0007e-005	
-0.17376937	8.4962e-005	
-0.17339463	7.5361e-005	
-0.17308217	8.4549e-005	
-0.1727507	6.1321e-005	
-0.17231051	8.9401e-005	
-0.17171093	4.5217e-005	
-0.17107334	5.4611e-005	
-0.17025102	4.1604e-005	
-0.16947831	3.479e-005	
-0.1689864	2.8596e-005	
-0.16851665	2.8906e-005	
-0.16792551	2.6944e-005	
-0.16712958	2.2195e-005	
-0.16651628	2.5602e-005	
-0.16607926	1.9098e-005	
-0.16577735	2.5189e-005	
-0.16528333	2.9732e-005	
-0.1645919	1.7756e-005	
-0.16408521	1.1666e-005	
-0.16371575	1.9821e-005	
-0.16313411	1.9511e-005	
-0.16225267	2.044e-005	
-0.16090782	1.373e-005	
-0.15964637	2.0647e-005	
-0.1587491	2.2402e-005	
-0.15810623	2.0131e-005	
-0.15771355	1.4453e-005	
-0.15715407	1.4866e-005	
-0.15645525	1.6724e-005	
-0.1557786	1.6208e-005	
-0.1551199	1.4866e-005	
-0.15408013	2.044e-005	
-0.15361144	1.755e-005	
-0.1530963	1.373e-005	
-0.1524851	2.2815e-005	
-0.15214414	1.9821e-005	
-0.15199319	1.3627e-005	
-0.15193196	1.1356e-005	
-0.1517884	1.693e-005	
-0.15134082	1.6518e-005	
-0.1510368	1.3421e-005	
-0.15043088	1.8376e-005	
-0.14971412	2.9422e-005	
-0.1486279	1.2182e-005	
-0.14746251	2.1783e-005	
-0.14648607	1.8169e-005	
-0.14592237	1.786e-005	
-0.14530484	1.5692e-005	
-0.14482559	2.2815e-005	
-0.1444498	9.085e-006	
-0.14382276	1.6827e-005	
-0.142973	1.3214e-005	
-0.1424283	1.8273e-005	
-0.14193533	1.6001e-005	
-0.14142442	2.1473e-005	
-0.14057571	1.404e-005	
-0.13996029	2.4157e-005	
-0.13933114	2.9835e-005	
-0.13877167	2.044e-005	
-0.13815731	8.568e-006	
-0.13752077	2.0028e-005	
-0.13670584	2.2918e-005	
-0.13591097	1.4453e-005	
-0.13519525	1.1872e-005	
-0.13447427	1.6001e-005	
-0.13360234	1.2388e-005	
-0.13283913	-4.15e-005	
-0.13188697	1.8789e-005	
-0.13117655	1.8995e-005	
-0.13075641	2.5499e-005	
-0.13047562	2.6222e-005	
-0.13018638	2.0853e-005	
-0.12964802	2.4363e-005	
-0.12889115	2.9009e-005	
-0.12836862	2.0853e-005	
-0.12776481	1.4453e-005	
-0.12693722	9.704e-006	
-0.12590905	2.1266e-005	
-0.12507405	1.6311e-005	
-0.1245927	1.6621e-005	
-0.12432985	2.3434e-005	
-0.12417784	2.3331e-005	
-0.12390549	2.1783e-005	
-0.12341147	1.8169e-005	
-0.12291216	2.0647e-005	
-0.12246247	2.7977e-005	
-0.12162854	1.786e-005	
-0.12090123	2.0544e-005	
-0.12053176	2.426e-005	
-0.11988573	1.6311e-005	
-0.11911936	1.786e-005	
-0.1185166	1.6208e-005	
-0.11809436	2.426e-005	
-0.11763834	1.9821e-005	
-0.11709047	3.159e-005	
-0.11637266	1.755e-005	
-0.11536455	1.755e-005	
-0.11456441	1.9615e-005	
-0.11389093	2.0544e-005	
-0.11311822	3.2725e-005	
-0.11228324	2.1163e-005	
-0.11162559	1.7447e-005	
-0.11128568	2.2195e-005	
-0.11118012	1.8582e-005	
-0.1111379	1.6311e-005	
-0.11103867	1.1975e-005	
-0.11078744	2.0853e-005	
-0.11044331	2.6118e-005	
-0.11010446	2.2195e-005	
-0.10970121	2.3021e-005	
-0.10927158	1.9718e-005	
-0.10868044	1.724e-005	
-0.10804813	1.9511e-005	
-0.10767339	3.0041e-005	
-0.1075826	1.9615e-005	
-0.1073757	2.6015e-005	
-0.10669484	1.8169e-005	
-0.10590102	2.457e-005	
-0.1051832	2.3538e-005	
-0.10452978	2.1783e-005	
-0.10395551	1.8892e-005	
-0.10348998	2.1266e-005	
-0.10301074	1.8066e-005	
-0.10270883	2.1886e-005	
-0.10234781	2.2299e-005	
-0.1019319	1.9718e-005	
-0.10176301	1.3317e-005	
-0.10168911	-2.7151e-005	
-0.10163633	2.1989e-005	
-0.10124048	4.181e-005	
-0.10057333	3.6029e-005	
-0.09964123	4.4081e-005	
-0.09872707	1.4659e-005	
-0.09799025	-1.239e-006	
-0.0972925	1.9821e-005	
-0.09623161	1.373e-005	
-0.09539557	2.6015e-005	
-0.09478965	2.0647e-005	
-0.09424389	1.2595e-005	
-0.09335719	4.5114e-005	
-0.09240609	5.884e-006	
-0.09145815	2.777e-005	
-0.09057355	1.1872e-005	
-0.08962455	2.044e-005	
-0.08891624	8.672e-006	
-0.08848133	2.2918e-005	
-0.08810342	3.4274e-005	
-0.08761784	2.9628e-005	
-0.0872811	-2.478e-006	
-0.08689052	1.7756e-005	
-0.08634583	3.3758e-005	
-0.08567763	2.2712e-005	
-0.08487114	2.2815e-005	
-0.08429478	3.2209e-005	
-0.08371947	1.8066e-005	
-0.08299953	1.8479e-005	
-0.08243583	2.8493e-005	
-0.08156601	3.4997e-005	
-0.08087669	2.5189e-005	
-0.08028872	1.9408e-005	
-0.07996254	2.4467e-005	
-0.07978836	2.8493e-005	
-0.0797398	2.2195e-005	
-0.0796828	1.3421e-005	
-0.07949068	1.3008e-005	
-0.07923733	2.2402e-005	
-0.07903254	1.8892e-005	
-0.07898926	1.5485e-005	
-0.07897132	2.3021e-005	
-0.07894915	1.8582e-005	
-0.07893332	2.2712e-005	
-0.07888476	1.7343e-005	
-0.07866414	2.8286e-005	
-0.07793576	1.2388e-005	
-0.07639352	1.7756e-005	
-0.0745937	1.5898e-005	
-0.07298601	2.106e-005	
-0.07126853	2.395e-005	
-0.07001341	2.8699e-005	
-0.06931354	2.1576e-005	
-0.06881107	1.693e-005	
-0.06825476	1.858e-006	
-0.06785258	1.5279e-005	
-0.06754012	1.4143e-005	
-0.06683075	3.6545e-005	
-0.06618366	3.9849e-005	
-0.06545529	3.448e-005	
-0.06484514	1.9924e-005	
-0.06368503	3.4377e-005	
-0.0627677	2.6635e-005	
-0.06200132	2.3744e-005	
-0.06124339	1.7343e-005	
-0.06040629	-9.7454e-005	
-0.0597117	-1.8479e-005	
-0.05907728	-2.426e-005	
-0.0585347	-1.1149e-005	
-0.05820112	-9.29e-007	
-0.05770921	1.4453e-005	
-0.05707901	4.0365e-005	
-0.05636964	3.4274e-005	
-0.05558743	3.3551e-005	
-0.05479995	8.6098e-005	
-0.0535955	1.4866e-005	
-0.05245649	-0.000138747	
-0.051574	-0.000179835	
-0.05088152	-2.137e-005	
-0.050511	1.652e-006	
-0.05033155	6.2354e-005	
-0.0503041	0.000138541	
-0.05028088	0.000123882	
-0.0502661	5.5437e-005	
-0.05026188	2.4983e-005	
-0.05025132	-8.26e-007	
-0.05024077	9.1879e-005	
-0.05023232	1.8582e-005	
-0.05023443	-2.8493e-005	
-0.05023232	3.4997e-005	
-0.0502281	0.000185203	
-0.05022916	0.000224742	
-0.05022599	0.000162801	
-0.05022177	4.0365e-005	
-0.05022177	-2.065e-006	
-0.05021754	0.00017839	
-0.05021543	-6.2251e-005	
-0.05021543	-0.00024033	
-0.05020699	-0.000208637	
-0.05020171	4.212e-005	
-0.05019643	5.8328e-005	
-0.05019432	7.5258e-005	
-0.05018799	0.000100757	
-0.05018588	6.8032e-005	
-0.05018588	4.4081e-005	
-0.05018165	1.5382e-005	
-0.05017954	6.256e-005	
-0.05017954	0.000152271	
-0.05017532	-0.000105196	
-0.05017004	-4.9243e-005	
-0.05016265	9.7041e-005	
-0.05015421	0.000140089	
-0.05014787	0.000144632	
-0.05014787	0.000172299	
-0.05014365	0.000167653	
-0.05014154	-1.0736e-005	
-0.05013732	-9.2602e-005	
-0.0501331	0.000135341	
-0.0501331	0.0001085	
-0.0501331	7.2677e-005	
-0.05012676	-4.0055e-005	
-0.05013098	1.5898e-005	
-0.05012887	6.318e-005	
-0.05012887	1.4143e-005	
-0.05012676	1.2078e-005	
-0.05012254	6.3076e-005	
