#INFO
#COMMENT: 

#DATA:
-0.4640566	0.00031373	
-0.46372619	0.000318582	
-0.4632195	0.000326738	
-0.46274448	0.000316001	
-0.46219345	0.000324467	
-0.4617427	0.000315588	
-0.46110722	0.000319098	
-0.46071454	0.000319511	
-0.46028385	0.000327254	
-0.45971804	0.000324983	
-0.45937075	0.00031755	
-0.45919974	0.00031435	
-0.4591554	0.000324467	
-0.45907095	0.000323125	
-0.45900339	0.000325189	
-0.45896539	0.0003319	
-0.45884716	0.000328286	
-0.45867404	0.000336855	
-0.45851253	0.000333138	
-0.45847664	0.000333345	
-0.45830352	0.000339126	
-0.45798579	0.000343152	
-0.45756671	0.000347488	
-0.45710224	0.000342946	
-0.45688478	0.000345423	
-0.45680033	0.000349346	
-0.45667049	0.000353682	
-0.45646993	0.000347385	
-0.45646043	0.000325396	
-0.45644037	0.000353063	
-0.45627781	0.000374639	
-0.45599068	0.000397144	
-0.45581334	0.000432553	
-0.45564233	0.000476841	
-0.45552516	0.000516793	
-0.45545865	0.000538266	
-0.45539954	0.000538059	
-0.45529609	0.000577392	
-0.45491713	0.000607639	
-0.45471867	0.000609188	
-0.45443788	0.000617137	
-0.45408108	0.00062488	
-0.45362295	0.000633242	
-0.45280485	0.000645527	
-0.45209759	0.000635203	
-0.45172813	0.000628493	
-0.45161412	0.000634893	
-0.45156768	0.000622712	
-0.45135761	0.000617034	
-0.45099026	0.000606401	
-0.45072319	0.000597213	
-0.45063135	0.000590812	
-0.45054901	0.00057574	
-0.45034633	0.000567171	
-0.45000012	0.000527426	
-0.44962538	0.000541363	
-0.44930237	0.000558706	
-0.44903846	0.00055499	
-0.44890546	0.000551583	
-0.44870911	0.000562732	
-0.44859722	0.000569133	
-0.44849799	0.000569959	
-0.44844838	0.000572333	
-0.44839665	0.000568926	
-0.44837237	0.000581108	
-0.44833121	0.00057223	
-0.44807575	0.000596903	
-0.44770312	0.000593187	
-0.44746666	0.000602581	
-0.44732943	0.000601755	
-0.44719642	0.000612388	
-0.44705497	0.000624983	
-0.44692408	0.000642326	
-0.44658839	0.000676084	
-0.44628649	0.001050103	
-0.44607431	0.001778734	
-0.44593075	0.00270888	
-0.44569218	0.003911874	
-0.44554017	0.005183625	
-0.44539028	0.00605761	
-0.44528471	0.006546634	
-0.44525727	0.006625196	
-0.44525727	0.006702519	
-0.44519815	0.007425989	
-0.44516332	0.008256408	
-0.44511371	0.008879845	
-0.44497648	0.012082499	
-0.44480336	0.01493746	
-0.44475691	0.014497886	
-0.44474635	0.014696614	
-0.44472946	0.015402429	
-0.44476958	0.016770912	
-0.4446429	0.018912313	
-0.44459646	0.02190344	
-0.44448034	0.02453686	
-0.44435472	0.028182498	
-0.44430089	0.030446855	
-0.44420694	0.031861378	
-0.44417949	0.03199486	
-0.44412988	0.032612414	
-0.44405071	0.033279104	
-0.44404648	0.034589464	
-0.44403593	0.036603476	
-0.44396626	0.038265454	
-0.44390714	0.04033573	
-0.44381531	0.042556727	
-0.44377203	0.045554463	
-0.44369602	0.048641706	
-0.44364113	0.049586203	
-0.44362002	0.050283244	
-0.44354612	0.055872904	
-0.44353135	0.056688874	
-0.44352079	0.057263169	
-0.44350812	0.05877164	
-0.44347434	0.061236273	
-0.44339201	0.078030027	
-0.44326744	0.094704029	
-0.44316822	0.10122156	
-0.44316505	0.10995503	
-0.4430521	0.11167069	
-0.44309221	0.11127985	
-0.4430141	0.11573846	
-0.4429761	0.11898345	
-0.44299298	0.118446	
-0.44296765	0.11947288	
-0.43701825	0.11904735	
-0.43694014	0.10891618	
-0.43689158	0.10278165	
-0.43683246	0.095612291	
-0.43678602	0.091057043	
-0.43679235	0.089389697	
-0.43669735	0.083263112	
-0.43669101	0.079693042	
-0.4366319	0.07561474	
-0.43656645	0.069009971	
-0.43648411	0.063669828	
-0.43642078	0.056444102	
-0.43636166	0.054882777	
-0.4363321	0.053248978	
-0.43633105	0.053250114	
-0.43632788	0.053217698	
-0.43631733	0.053056549	
-0.43631733	0.053008235	
-0.43632155	0.05252458	
-0.43630677	0.051779739	
-0.43628355	0.051744123	
-0.43628355	0.051828672	
-0.43626771	0.04938727	
-0.43623921	0.04633327	
-0.43622021	0.045283678	
-0.43620965	0.045349749	
-0.4361991	0.045098372	
-0.43620438	0.044757901	
-0.43618432	0.044073352	
-0.43616954	0.044307591	
-0.43613787	0.042604731	
-0.43614421	0.041972728	
-0.43613365	0.041478953	
-0.4361062	0.039647667	
-0.43609987	0.038294669	
-0.43608931	0.037860051	
-0.43598164	0.031654392	
-0.43568396	0.019287055	
-0.43528388	0.007489478	
-0.4348722	0.003122542	
-0.43474763	0.00250396	
-0.43473074	0.002514283	
-0.43471385	0.002498488	
-0.43470752	0.002327119	
-0.43467163	0.002233691	
-0.43468008	0.002302239	
-0.43468219	0.002291812	
-0.43467374	0.002187236	
-0.43465474	0.002160291	
-0.43446262	0.001139505	
-0.43408682	0.000741948	
-0.43393798	0.000709222	
-0.43390948	0.000696834	
-0.43387042	0.000690537	
-0.43375747	0.000666174	
-0.43369519	0.00065265	
-0.43359174	0.000634068	
-0.4335284	0.000611975	
-0.43343973	0.000597626	
-0.43323072	0.000562113	
-0.43299638	0.000527529	
-0.43273459	0.000488403	
-0.43257202	0.00046755	
-0.43258047	0.000476635	
-0.43250235	0.000470131	
-0.4324179	0.000462491	
-0.43227434	0.000447935	
-0.432135	0.000435237	
-0.43203155	0.000424295	
-0.43187426	0.000403131	
-0.43161247	0.000389505	
-0.43143935	0.000371955	
-0.43122823	0.000362147	
-0.43099811	0.000349346	
-0.4307796	0.000340881	
-0.43061809	0.000338816	
-0.43036896	0.000319821	
-0.42983166	0.000308981	
-0.42824088	0.000281831	
-0.42721272	0.000259016	
-0.42685487	0.000269855	
-0.42668386	0.000276566	
-0.4256937	0.000233414	
-0.42316973	0.000222884	
-0.42104373	0.000201101	
-0.41862322	0.000182725	
-0.41630827	0.000164969	
-0.41403871	0.000158878	
-0.41071987	0.000155781	
-0.40671807	0.000151858	
-0.40364941	0.00015	
-0.40049103	0.000147316	
-0.39605855	0.000148864	
-0.39095151	0.000130385	
-0.38586241	0.000126979	
-0.38074587	0.000110461	
-0.37514377	0.000107571	
-0.37058564	8.5478e-005	
-0.36563168	8.362e-005	
-0.36016046	8.2072e-005	
-0.35362201	7.2368e-005	
-0.34947029	6.5967e-005	
-0.34300259	6.8135e-005	
-0.33873581	6.0908e-005	
-0.33271252	5.6263e-005	
-0.32668182	6.0496e-005	
-0.32185452	6.4935e-005	
-0.31803637	5.554e-005	
-0.31414223	6.1012e-005	
-0.31044444	6.4728e-005	
-0.30615655	6.0805e-005	
-0.30288418	5.9566e-005	
-0.30056078	5.6263e-005	
-0.29774019	5.7089e-005	
-0.29436012	6.5141e-005	
-0.29237663	4.9449e-005	
-0.29055359	5.4198e-005	
-0.28865877	4.9553e-005	
-0.28676395	4.3875e-005	
-0.2842896	5.234e-005	
-0.28268191	5.9979e-005	
-0.28131807	5.6779e-005	
-0.28046831	4.4494e-005	
-0.27949926	4.7591e-005	
-0.27779233	4.9243e-005	
-0.27668078	5.0791e-005	
-0.27585318	5.8018e-005	
-0.27467512	5.1308e-005	
-0.27335983	4.1604e-005	
-0.2718957	4.6559e-005	
-0.27058885	4.4081e-005	
-0.26915005	4.8004e-005	
-0.26783371	4.9449e-005	
-0.26618379	5.2134e-005	
-0.26498567	5.8328e-005	
-0.2641813	5.1927e-005	
-0.2635036	5.5747e-005	
-0.26267916	5.6779e-005	
-0.26199513	4.7591e-005	
-0.26144306	5.0069e-005	
-0.26076535	5.3372e-005	
-0.25978469	5.3269e-005	
-0.25866152	5.0688e-005	
-0.2575943	4.5939e-005	
-0.2564458	4.9862e-005	
-0.25574382	4.9862e-005	
-0.25517801	5.0791e-005	
-0.25428391	4.9036e-005	
-0.25332119	4.4081e-005	
-0.25250098	5.4198e-005	
-0.25221386	5.7089e-005	
-0.25208296	5.1617e-005	
-0.2518655	5.1204e-005	
-0.2516016	5.3063e-005	
-0.25101363	5.3579e-005	
-0.25044993	4.532e-005	
-0.2501248	4.7178e-005	
-0.24985879	5.3166e-005	
-0.249559	5.0688e-005	
-0.24928348	6.0599e-005	
-0.24896258	5.3372e-005	
-0.24882112	5.4714e-005	
-0.24873879	4.9036e-005	
-0.24853822	5.2546e-005	
-0.24831654	5.2237e-005	
-0.24823209	5.7089e-005	
-0.24818143	4.4701e-005	
-0.24817931	5.8844e-005	
-0.24817298	5.5024e-005	
-0.24816665	4.9862e-005	
-0.24816454	6.1115e-005	
-0.24816031	4.6146e-005	
-0.24816031	5.7708e-005	
-0.2481582	5.2546e-005	
-0.24814448	5.7295e-005	
-0.24793652	5.7089e-005	
-0.247528	6.2354e-005	
-0.24701709	5.554e-005	
-0.24661384	4.5114e-005	
-0.24627816	5.7398e-005	
-0.24597203	5.2753e-005	
-0.24550651	6.1425e-005	
-0.24505893	5.8121e-005	
-0.24454802	5.5644e-005	
-0.24427145	5.6056e-005	
-0.24410466	5.5953e-005	
-0.24396321	4.8727e-005	
-0.24386504	5.3992e-005	
-0.24362225	5.3166e-005	
-0.24337523	5.4921e-005	
-0.24309444	4.9036e-005	
-0.24270386	5.7811e-005	
-0.24245474	5.3269e-005	
-0.24208422	5.2959e-005	
-0.24178654	5.3785e-005	
-0.24146352	5.2134e-005	
-0.24111728	5.1101e-005	
-0.24081538	4.7591e-005	
-0.24057259	5.0275e-005	
-0.2403182	5.2856e-005	
-0.24007224	4.9449e-005	
-0.23972072	4.9243e-005	
-0.23940404	5.4508e-005	
-0.23923725	4.9036e-005	
-0.23862816	5.3579e-005	
-0.23757466	5.3372e-005	
-0.2367819	5.3992e-005	
-0.23611898	4.9656e-005	
-0.23588463	5.4301e-005	
-0.23578329	5.5644e-005	
-0.2357474	5.585e-005	
-0.2357284	5.6056e-005	
-0.23562706	5.1927e-005	
-0.23538216	5.2443e-005	
-0.23497575	5.5231e-005	
-0.23454295	5.3372e-005	
-0.23407215	5.5747e-005	
-0.23371747	5.8741e-005	
-0.23366891	5.7295e-005	
-0.23363513	5.8018e-005	
-0.23355912	5.3372e-005	
-0.23347573	4.914e-005	
-0.23331317	6.2044e-005	
-0.23303871	5.2856e-005	
-0.23259113	5.1514e-005	
-0.23200632	6.3593e-005	
-0.23139935	5.6263e-005	
-0.23096866	5.5334e-005	
-0.23056436	7.0613e-005	
-0.23040707	5.2959e-005	
-0.23022234	5.4714e-005	
-0.23013472	5.8741e-005	
-0.22999117	5.4818e-005	
-0.22973255	6.0702e-005	
-0.22926386	6.5864e-005	
-0.22875927	5.4921e-005	
-0.22832225	6.8135e-005	
-0.22813541	5.203e-005	
-0.22801085	6.0805e-005	
-0.22789262	6.2044e-005	
-0.2276076	5.905e-005	
-0.2270988	6.0702e-005	
-0.22655833	6.1631e-005	
-0.22614558	5.9566e-005	
-0.22579512	6.287e-005	
-0.22552489	6.6793e-005	
-0.22536232	7.4019e-005	
-0.22528632	6.638e-005	
-0.22529265	6.6586e-005	
-0.22516598	7.5361e-005	
-0.2249443	6.3696e-005	
-0.22488096	7.1748e-005	
-0.22480918	6.4522e-005	
-0.22478807	6.7619e-005	
-0.2247944	6.6999e-005	
-0.22464028	6.7515e-005	
-0.22434366	6.6173e-005	
-0.22408609	6.607e-005	
-0.22396153	6.6483e-005	
-0.22377785	6.6586e-005	
-0.22361529	6.7825e-005	
-0.22347806	7.5981e-005	
-0.22339361	6.3799e-005	
-0.22315293	7.0509e-005	
-0.22290592	7.1438e-005	
-0.22263251	7.0509e-005	
-0.22208149	7.2264e-005	
-0.2217933	6.5038e-005	
-0.22143123	7.1955e-005	
-0.22128556	6.5554e-005	
-0.22099949	6.7206e-005	
-0.22076936	7.1645e-005	
-0.22060046	6.6586e-005	
-0.22050968	7.1232e-005	
-0.22035979	6.5038e-005	
-0.22032178	6.958e-005	
-0.22015922	6.989e-005	
-0.21990165	7.8252e-005	
-0.21963775	7.278e-005	
-0.219187	6.6483e-005	
-0.21879432	7.1748e-005	
-0.21847341	7.371e-005	
-0.2183024	6.5657e-005	
-0.21826018	7.02e-005	
-0.21815673	6.7309e-005	
-0.21763631	7.0509e-005	
-0.2172204	7.2264e-005	
-0.2169755	7.6703e-005	
-0.2168446	7.7529e-005	
-0.21682138	7.7426e-005	
-0.21681505	7.0096e-005	
-0.21672426	7.5052e-005	
-0.21661448	7.8045e-005	
-0.21639491	7.5774e-005	
-0.21628935	7.7529e-005	
-0.21618696	7.8871e-005	
-0.21611412	8.2381e-005	
-0.21597478	7.1851e-005	
-0.21571827	7.9697e-005	
-0.21549131	8.5478e-005	
-0.21515457	8.6201e-005	
-0.21502156	7.8871e-005	
-0.21478722	8.682e-005	
-0.21462466	9.3944e-005	
-0.21439664	8.5685e-005	
-0.21406307	9.2085e-005	
-0.21371578	8.8988e-005	
-0.21341809	9.7041e-005	
-0.21307185	0.000108809	
-0.21299585	9.5182e-005	
-0.21296524	0.000104164	
-0.21278262	9.7866e-005	
-0.21272984	0.000107983	
-0.21246699	0.000104474	
-0.21247227	0.000108087	
-0.2122812	0.000104267	
-0.21214186	0.000111597	
-0.21173651	0.00012223	
-0.21125304	0.00013565	
-0.21101447	0.000137405	
-0.21099758	0.000134308	
-0.21098913	0.000135341	
-0.21096802	0.000128734	
-0.21093847	0.000137612	
-0.21067456	0.000140502	
-0.21057111	0.000144942	
-0.21048561	0.000143703	
-0.21052255	0.000146697	
-0.21045605	0.000150619	
-0.21036316	0.000150516	
-0.20991558	0.000155988	
-0.20933077	0.000174673	
-0.20885365	0.000184171	
-0.20867102	0.000189229	
-0.20835223	0.000196146	
-0.20806299	0.00020616	
-0.20776953	0.000214728	
-0.20745707	0.000228665	
-0.20728184	0.000238162	
-0.20714883	0.000241363	
-0.20689654	0.000256951	
-0.20647008	0.000273262	
-0.20624629	0.000279869	
-0.20615973	0.000283276	
-0.20612806	0.000281005	
-0.2061175	0.00028307	
-0.20610906	0.000288644	
-0.20610589	0.00029009	
-0.20607317	0.000293599	
-0.20595283	0.000301239	
-0.20585993	0.000306297	
-0.20586732	0.000298452	
-0.20585571	0.000298968	
-0.2058156	0.000305162	
-0.20577337	0.000298968	
-0.2057037	0.000313008	
-0.20554325	0.000322092	
-0.2054683	0.000325602	
-0.20539336	0.000322402	
-0.20535746	0.000333655	
-0.20529307	0.000338507	
-0.20526246	0.000346043	
-0.20521918	0.000350069	
-0.20504184	0.000353269	
-0.20489405	0.000368754	
-0.20480116	0.000381659	
-0.20471249	0.000400034	
-0.20464071	0.000390743	
-0.20462382	0.000393737	
-0.20455942	0.000404164	
-0.20440003	0.000436683	
-0.20426913	0.000450413	
-0.20421213	0.000452374	
-0.20420157	0.000454336	
-0.20418257	0.000449897	
-0.2041699	0.00044649	
-0.20413401	0.000452581	
-0.20414035	0.000455884	
-0.20414457	0.000462801	
-0.20408968	0.000477254	
-0.20404745	0.00047137	
-0.203944	0.000489849	
-0.20389122	0.000499656	
-0.2037561	0.000526084	
-0.20341092	0.000591535	
-0.20305201	0.000653063	
-0.20272688	0.000727908	
-0.20262132	0.000739367	
-0.2025601	0.000739057	
-0.20253371	0.000743187	
-0.20250732	0.00073596	
-0.20249043	0.000739264	
-0.20247565	0.000744219	
-0.20246087	0.000749587	
-0.20250098	0.000777977	
-0.2022413	0.00083775	
-0.20190562	0.000946972	
-0.2013472	0.001070441	
-0.20107697	0.001138059	
-0.20086373	0.001194116	
-0.20079195	0.001213317	
-0.20064628	0.001272781	
-0.20035704	0.001332553	
-0.20030215	0.001366621	
-0.20027681	0.001370854	
-0.2001987	0.001407915	
-0.20013536	0.001486993	
-0.20000658	0.001550895	
-0.19987674	0.001644529	
-0.19963606	0.001739195	
-0.19949461	0.00177254	
-0.1993806	0.001790503	
-0.19934049	0.001786167	
-0.19932571	0.0018032	
-0.19907447	0.001865245	
-0.19892247	0.001896112	
-0.19883591	0.001906642	
-0.19879157	0.001927392	
-0.19862478	0.001990571	
-0.19850759	0.002031246	
-0.19840097	0.002035375	
-0.19837247	0.002046938	
-0.19831969	0.002088438	
-0.1981983	0.00212354	
-0.19809801	0.002173299	
-0.19789639	0.002229665	
-0.19773066	0.00223844	
-0.19771799	0.002251654	
-0.19769477	0.002263526	
-0.19764832	0.002336513	
-0.19734853	0.002468653	
-0.19702974	0.002596251	
-0.19669405	0.002648591	
-0.19664972	0.002644668	
-0.1966001	0.002636719	
-0.19659905	0.002637029	
-0.19658216	0.002645494	
-0.19657055	0.002662218	
-0.1965336	0.00266067	
-0.19653149	0.002666554	
-0.19649349	0.002696699	
-0.19639954	0.002725295	
-0.19630981	0.002731386	
-0.19631087	0.002736754	
-0.19628131	0.00277526	
-0.19606808	0.002838027	
-0.19598363	0.002867965	
-0.19591607	0.002861358	
-0.19589496	0.002897593	
-0.19587384	0.002891193	
-0.19587595	0.002903581	
-0.19585168	0.00291122	
-0.19584851	0.002924435	
-0.19577462	0.002950243	
-0.19575139	0.002982246	
-0.19571656	0.002984724	
-0.19565533	0.002983794	
-0.19564161	0.002981833	
-0.19564161	0.002986995	
-0.19564372	0.002990918	
-0.19564161	0.002992156	
-0.19562683	0.003002377	
-0.19568594	0.003040986	
-0.1956015	0.003047594	
-0.19556772	0.003058536	
-0.19557616	0.003081145	
-0.19541571	0.003141124	
-0.19532493	0.003222886	
-0.19512225	0.003304028	
-0.1949713	0.003336547	
-0.19485307	0.003394152	
-0.19460078	0.003492948	
-0.19443716	0.003509982	
-0.1944076	0.003537442	
-0.19423237	0.003553031	
-0.19420281	0.003560463	
-0.19419437	0.003560876	
-0.19414159	0.003597938	
-0.19405503	0.003630353	
-0.19401703	0.00362003	
-0.19396002	0.003688165	
-0.19370034	0.00377674	
-0.19321265	0.003980629	
-0.19267957	0.004117931	
-0.19254656	0.004094084	
-0.19250011	0.004068894	
-0.192479	0.00406683	
-0.19246845	0.00407323	
-0.19245789	0.004071682	
-0.19245367	0.004076843	
-0.19244522	0.00408056	
-0.19244522	0.004083038	
-0.19244311	0.004078289	
-0.19243889	0.004077669	
-0.19243678	0.004075398	
-0.19243678	0.004084689	
-0.19249167	0.004103891	
-0.19236922	0.004121338	
-0.19234177	0.004131868	
-0.19234811	0.0041393	
-0.19233755	0.004159225	
-0.1922531	0.004182349	
-0.19212854	0.004223439	
-0.19202509	0.004265971	
-0.19190158	0.004265868	
-0.19186886	0.004280837	
-0.19180341	0.004302207	
-0.19177808	0.004301278	
-0.19174324	0.004300762	
-0.19175063	0.004336584	
-0.19162396	0.004371477	
-0.19154795	0.004390782	
-0.19148462	0.004444671	
-0.19140861	0.004463253	
-0.19136005	0.004460879	
-0.19134211	0.004461188	
-0.19133472	0.004492675	
-0.19112043	0.004568243	
-0.19094731	0.004590954	
-0.19093464	0.004593742	
-0.19091987	0.004604994	
-0.19091353	0.004633074	
-0.19080164	0.004655476	
-0.19076997	0.004664251	
-0.1907193	0.004691608	
-0.19065596	0.004723301	
-0.19049762	0.004791539	
-0.19000571	0.004942572	
-0.18970591	0.004986343	
-0.18963624	0.00498913	
-0.18961513	0.004979839	
-0.1895898	0.004979323	
-0.18952224	0.005060569	
-0.18904827	0.005164629	
-0.18882026	0.005183315	
-0.18878331	0.005190851	
-0.18870203	0.005205717	
-0.1886028	0.005213253	
-0.18846979	0.005267658	
-0.18821434	0.005372854	
-0.18776571	0.005541849	
-0.18756831	0.005599557	
-0.18746592	0.005595531	
-0.18722102	0.005696288	
-0.18695923	0.005824712	
-0.18676288	0.005869619	
-0.18671327	0.005880459	
-0.18668688	0.005899764	
-0.18667843	0.005951175	
-0.18655387	0.006022716	
-0.18642086	0.006056474	
-0.18635119	0.006056164	
-0.18633642	0.006104375	
-0.18619708	0.006169206	
-0.18608835	0.006216075	
-0.18602712	0.006251691	
-0.18596167	0.006307336	
-0.18577589	0.006401177	
-0.1855521	0.006510089	
-0.18541909	0.006590716	
-0.18533464	0.006659986	
-0.18518686	0.006740303	
-0.18506863	0.006813393	
-0.18496518	0.006905685	
-0.18491662	0.006918589	
-0.18489129	0.006948011	
-0.1848195	0.006982801	
-0.1847245	0.007102966	
-0.18442259	0.007281562	
-0.1843582	0.007275987	
-0.18432548	0.007281975	
-0.18431176	0.007293021	
-0.18431281	0.007402245	
-0.18395074	0.007650421	
-0.18359394	0.007963222	
-0.18314003	0.008217076	
-0.18297958	0.008229464	
-0.18296269	0.008218831	
-0.18294791	0.008239994	
-0.18293102	0.008235555	
-0.18290991	0.008273442	
-0.18288246	0.008340132	
-0.18281701	0.008362327	
-0.18265023	0.008460196	
-0.18255522	0.008551455	
-0.18240638	0.008646431	
-0.18231771	0.008681118	
-0.18211081	0.008988551	
-0.18177196	0.009262329	
-0.18169068	0.009259748	
-0.18162945	0.009260884	
-0.18161467	0.009257993	
-0.18160412	0.009262433	
-0.18159356	0.009267491	
-0.18158511	0.009274305	
-0.18155556	0.009349459	
-0.181602	0.009469109	
-0.18151122	0.009571931	
-0.18143205	0.009586487	
-0.18130432	0.009778814	
-0.18116287	0.009914051	
-0.18102986	0.010188036	
-0.1807723	0.010356515	
-0.18072374	0.010353005	
-0.18069524	0.010356928	
-0.18068151	0.010352385	
-0.18066779	0.010356102	
-0.18065618	0.010358786	
-0.18064668	0.010343198	
-0.18064034	0.010377265	
-0.18067623	0.010525925	
-0.18049045	0.010664363	
-0.18037433	0.010767701	
-0.18015054	0.011035182	
-0.18001542	0.011074721	
-0.17996264	0.011063984	
-0.17996475	0.011073998	
-0.17994997	0.011087315	
-0.17993309	0.011088554	
-0.17991303	0.011183737	
-0.17987397	0.011270247	
-0.17969768	0.011542168	
-0.17951823	0.011757826	
-0.17946439	0.011769801	
-0.17942639	0.01188883	
-0.17932928	0.01203594	
-0.17925327	0.01208126	
-0.1792026	0.012090964	
-0.17915404	0.012129884	
-0.17899359	0.01275012	
-0.17840456	0.013754803	
-0.17819872	0.013983674	
-0.17812905	0.014002669	
-0.17808788	0.013991417	
-0.17806993	0.01397779	
-0.17805727	0.014018464	
-0.17808049	0.014112098	
-0.1780826	0.014248368	
-0.17804671	0.014327858	
-0.17800449	0.014375346	
-0.17797071	0.014460722	
-0.17784403	0.01476671	
-0.1775949	0.015142484	
-0.17745978	0.015271528	
-0.17728244	0.015440626	
-0.17715788	0.015591659	
-0.17706604	0.015755598	
-0.17699215	0.015814029	
-0.17691614	0.016020499	
-0.17673141	0.016354256	
-0.17663324	0.016560622	
-0.17661424	0.016658592	
-0.17625533	0.017973187	
-0.17570008	0.018941322	
-0.17561141	0.018875252	
-0.17556813	0.018889705	
-0.17556074	0.018901989	
-0.1755544	0.018887433	
-0.17554596	0.018878865	
-0.17553963	0.018889705	
-0.17549846	0.019059732	
-0.17548157	0.019256188	
-0.17540451	0.019340324	
-0.17532111	0.019411349	
-0.17524511	0.019537089	
-0.1752525	0.019670881	
-0.17512477	0.019863104	
-0.17501288	0.020260459	
-0.1749601	0.020462592	
-0.17491365	0.020709839	
-0.17485242	0.020751753	
-0.17474475	0.021266275	
-0.17469514	0.021361871	
-0.17464975	0.021391912	
-0.17463286	0.021362387	
-0.17460541	0.021350102	
-0.17459485	0.021429902	
-0.17458219	0.021601582	
-0.17457796	0.021721334	
-0.17448929	0.021829111	
-0.17449774	0.021988712	
-0.17444707	0.022084311	
-0.17442596	0.022134277	
-0.17438584	0.022238028	
-0.17434151	0.022474848	
-0.17433729	0.022508193	
-0.17434995	0.022507161	
-0.17431828	0.022603582	
-0.17422117	0.022775158	
-0.17414516	0.022883761	
-0.17410294	0.023030767	
-0.17405016	0.023215558	
-0.17395093	0.023455269	
-0.17391504	0.023602482	
-0.17386437	0.023755166	
-0.17380737	0.023995806	
-0.17370392	0.024699661	
-0.1735593	0.024907679	
-0.1735403	0.024920274	
-0.17351074	0.024939682	
-0.17350969	0.024985931	
-0.17353186	0.025209643	
-0.17347696	0.025599664	
-0.17341996	0.025677297	
-0.17339779	0.025780738	
-0.17336296	0.025895019	
-0.17333129	0.026005583	
-0.17325317	0.026423892	
-0.17317295	0.026776438	
-0.17309694	0.02687286	
-0.17306316	0.026889687	
-0.17308217	0.026964842	
-0.17309483	0.026992715	
-0.17305894	0.02721436	
-0.1730505	0.02740927	
-0.1729481	0.027600358	
-0.17292382	0.027920592	
-0.17285626	0.028142237	
-0.17280348	0.028145747	
-0.17278237	0.02816629	
-0.17275282	0.028196848	
-0.17275493	0.028283255	
-0.17276548	0.028327958	
-0.17274859	0.028488797	
-0.17275915	0.028619699	
-0.17273804	0.028720559	
-0.17273804	0.02883133	
-0.17269792	0.02893663	
-0.17263248	0.029575759	
-0.17256703	0.030136942	
-0.1725058	0.030177617	
-0.17246358	0.030207555	
-0.17245513	0.030183191	
-0.17244669	0.030185876	
-0.1724298	0.030200328	
-0.1724108	0.030365194	
-0.17245513	0.030597061	
-0.17237068	0.030873008	
-0.17233479	0.03116382	
-0.17224612	0.031198404	
-0.1722229	0.031314026	
-0.17221234	0.031358624	
-0.17217012	0.031347991	
-0.17221023	0.031474248	
-0.17218701	0.031609175	
-0.17217012	0.031646237	
-0.17218067	0.031883057	
-0.17213739	0.032284227	
-0.17210678	0.032390352	
-0.17207406	0.033091526	
-0.17181332	0.034398789	
-0.17165392	0.034501714	
-0.17158214	0.034471054	
-0.17154625	0.03451369	
-0.17153992	0.034514412	
-0.17151881	0.034634166	
-0.17160853	0.035011902	
-0.17153992	0.035535302	
-0.17139636	0.036465967	
-0.17119579	0.0375074	
-0.170991	0.038097491	
-0.17085377	0.038677257	
-0.17060465	0.039203655	
-0.17054131	0.03976742	
-0.17028163	0.040451662	
-0.17017818	0.040868317	
-0.17001773	0.04115748	
-0.16991322	0.041277851	
-0.16989211	0.041776372	
-0.16977388	0.042024449	
-0.1697021	0.04260597	
-0.16943187	0.04432287	
-0.16922074	0.044463682	
-0.16917007	0.044498369	
-0.1691004	0.044467812	
-0.16907507	0.044502292	
-0.16905185	0.044562581	
-0.16902018	0.044654976	
-0.16900962	0.044843379	
-0.16900118	0.045244243	
-0.1687415	0.045919294	
-0.16845226	0.046677248	
-0.16823164	0.046868542	
-0.16812396	0.047124976	
-0.16815774	0.047373362	
-0.16809863	0.047363968	
-0.16804163	0.047396074	
-0.16805429	0.047626081	
-0.16794029	0.047973982	
-0.16775661	0.048092598	
-0.16771122	0.048459703	
-0.16758349	0.048640983	
-0.16756871	0.04890258	
-0.16744837	0.048944493	
-0.16740404	0.049340711	
-0.16708314	0.050650348	
-0.16683191	0.050851346	
-0.16678124	0.050844739	
-0.16674535	0.050907609	
-0.16671262	0.050952206	
-0.16671685	0.051160121	
-0.16676118	0.051256336	
-0.16667568	0.051299591	
-0.16664823	0.051464357	
-0.1666799	0.051963393	
-0.16654056	0.052012533	
-0.16651839	0.052138686	
-0.16645506	0.052545227	
-0.16638538	0.052826542	
-0.1663041	0.053011022	
-0.16620171	0.053093094	
-0.16614048	0.053763709	
-0.16601381	0.054295574	
-0.16590403	0.054432464	
-0.16586602	0.054527134	
-0.16580691	0.054705523	
-0.16575835	0.055001084	
-0.16561057	0.055812718	
-0.16546067	0.056329924	
-0.16538678	0.056422423	
-0.165353	0.056448231	
-0.16530866	0.056567674	
-0.16529811	0.056809659	
-0.16521999	0.057247581	
-0.16508276	0.057444965	
-0.16502998	0.057441042	
-0.16502681	0.057608386	
-0.16498987	0.058120536	
-0.16477769	0.058860938	
-0.16456446	0.0594246	
-0.16449268	0.059493457	
-0.16439978	0.059535061	
-0.16438923	0.06002863	
-0.16425622	0.060723193	
-0.16412532	0.060862253	
-0.16406832	0.060856059	
-0.16403665	0.061059328	
-0.16401132	0.061213458	
-0.16396909	0.061401242	
-0.16387409	0.062023128	
-0.16358591	0.06260052	
-0.16342229	0.062974336	
-0.1632365	0.0634168	
-0.16318689	0.063504962	
-0.16315416	0.063543572	
-0.16312672	0.063581356	
-0.16304121	0.06379722	
-0.16293987	0.064348084	
-0.16284487	0.064804381	
-0.16270342	0.065328197	
-0.16244163	0.066100396	
-0.16225478	0.066569288	
-0.16211544	0.066892619	
-0.1619096	0.06731733	
-0.16166047	0.067836704	
-0.16158236	0.067867571	
-0.16152958	0.067944584	
-0.16146941	0.068247376	
-0.16127729	0.068848408	
-0.16100916	0.069768024	
-0.16076848	0.070183234	
-0.16063759	0.070334064	
-0.1605827	0.070388675	
-0.16053414	0.070496968	
-0.16051408	0.070881724	
-0.16038213	0.07126297	
-0.16028396	0.071355782	
-0.16024068	0.071475018	
-0.16016467	0.07166755	
-0.15999367	0.072091535	
-0.15978677	0.072426326	
-0.15955664	0.072977703	
-0.15926213	0.073698492	
-0.15905945	0.074147459	
-0.158861	0.074209503	
-0.15883144	0.074194431	
-0.15879133	0.074160673	
-0.15882722	0.074396668	
-0.15868999	0.074644745	
-0.15863298	0.074675818	
-0.15858443	0.074847911	
-0.1584662	0.075097326	
-0.15837119	0.075247016	
-0.15806295	0.075957892	
-0.15785606	0.076248601	
-0.15773255	0.076266048	
-0.15771777	0.076376922	
-0.15760376	0.076608997	
-0.15750876	0.076834875	
-0.15743064	0.076913127	
-0.15736309	0.077050429	
-0.15725964	0.077445818	
-0.15696195	0.078081644	
-0.15660515	0.078577997	
-0.15646581	0.078626414	
-0.15641936	0.078665748	
-0.15639614	0.078682163	
-0.15637925	0.078726141	
-0.15635813	0.07875102	
-0.15631908	0.078972459	
-0.15608579	0.079266265	
-0.15596017	0.079341213	
-0.15587994	0.079370428	
-0.15582294	0.079547992	
-0.15579972	0.079644723	
-0.15568149	0.079711108	
-0.15550837	0.080027109	
-0.15533314	0.08021768	
-0.15524447	0.080296139	
-0.15505446	0.080464515	
-0.1549679	0.080634336	
-0.1549489	0.080747586	
-0.15484967	0.080888192	
-0.15472933	0.080980484	
-0.15452032	0.081198928	
-0.15421525	0.081578213	
-0.1539049	0.081809049	
-0.15377822	0.081857673	
-0.15371278	0.081873777	
-0.15364522	0.0818362	
-0.15360933	0.081873468	
-0.15353754	0.082113798	
-0.15338976	0.082265347	
-0.15329687	0.082214039	
-0.15330531	0.082242738	
-0.15322614	0.082332759	
-0.15321242	0.082342566	
-0.15306041	0.082387783	
-0.15296329	0.082451169	
-0.15289151	0.082516001	
-0.15270572	0.082606021	
-0.15259594	0.082712043	
-0.15242599	0.082774191	
-0.1522972	0.082847076	
-0.15216842	0.082887338	
-0.1519953	0.083023711	
-0.1518834	0.08309773	
-0.15185174	0.083137269	
-0.15183062	0.083108054	
-0.15182218	0.083046422	
-0.15180529	0.083008845	
-0.15174829	0.083078012	
-0.1516005	0.083100414	
-0.15144216	0.08317495	
-0.15132604	0.083303477	
-0.15117614	0.0833457	
-0.15109803	0.083322266	
-0.15102203	0.083332486	
-0.15095658	0.083371715	
-0.15091224	0.083393601	
-0.15093124	0.083358088	
-0.15083307	0.083367999	
-0.15074546	0.083321233	
-0.15064728	0.083426326	
-0.15053961	0.083458639	
-0.15039394	0.083481247	
-0.15034116	0.083299657	
-0.15037283	0.083343635	
-0.15026938	0.083362217	
-0.15022082	0.08328665	
-0.15018915	0.083316484	
-0.15016381	0.083272197	
-0.15014481	0.083286237	
-0.1500477	0.083272919	
-0.14997064	0.083301928	
-0.14989358	0.083271784	
-0.14983446	0.083315865	
-0.14977535	0.083304612	
-0.14973946	0.083267861	
-0.1496529	0.083199416	
-0.14957478	0.083153064	
-0.149484	0.083149657	
-0.14929821	0.083103718	
-0.14911032	0.083161632	
-0.14901742	0.083151309	
-0.1489467	0.083193945	
-0.14891292	0.083260841	
-0.14885169	0.083214489	
-0.14887914	0.083215108	
-0.14872502	0.083061082	
-0.14848645	0.082889093	
-0.14823521	0.08283386	
-0.14796603	0.082877118	
-0.14782986	0.08285389	
-0.14774752	0.082798038	
-0.14767574	0.082744046	
-0.14757018	0.08263121	
-0.14740445	0.082545319	
-0.14715321	0.082374672	
-0.14667397	0.082122986	
-0.14626861	0.081783546	
-0.14599627	0.081473223	
-0.14571336	0.081215446	
-0.14532806	0.080844627	
-0.14503249	0.080527178	
-0.14492482	0.080541321	
-0.14488049	0.080629484	
-0.14484671	0.080603469	
-0.14481293	0.080435712	
-0.14478337	0.080241115	
-0.14468203	0.080149236	
-0.1446018	0.080030206	
-0.14449624	0.079951748	
-0.14440757	0.079865857	
-0.14432312	0.07978905	
-0.14430623	0.07968994	
-0.14425134	0.07964751	
-0.14409511	0.07955398	
-0.14395577	0.079326967	
-0.14374254	0.07903378	
-0.14360003	0.07887707	
-0.14359792	0.078873973	
-0.14354303	0.078846409	
-0.14353036	0.078867159	
-0.1434058	0.078767538	
-0.14337835	0.078580061	
-0.14326646	0.078269841	
-0.14308067	0.078015058	
-0.14285266	0.077715677	
-0.14257714	0.077334221	
-0.14233963	0.076974242	
-0.14215384	0.076565536	
-0.141948	0.075987314	
-0.14173055	0.075563742	
-0.14154265	0.075197876	
-0.14132097	0.074738895	
-0.14108451	0.074335656	
-0.14094939	0.074139407	
-0.14082589	0.073778395	
-0.14057571	0.073268928	
-0.14034875	0.072963457	
-0.14020097	0.072822851	
-0.1401693	0.072702273	
-0.14004896	0.072321645	
-0.13973333	0.071627599	
-0.13953382	0.071121745	
-0.13923614	0.070367822	
-0.13886668	0.069506634	
-0.13851938	0.068740941	
-0.13828926	0.068320363	
-0.13802535	0.06757552	
-0.13719142	0.065818459	
-0.13626354	0.064334767	
-0.13602497	0.064056033	
-0.13593841	0.064034767	
-0.13590674	0.063887137	
-0.13578007	0.063569897	
-0.13557211	0.063017385	
-0.13521637	0.062327051	
-0.13509919	0.061969963	
-0.13484796	0.061718482	
-0.13461572	0.061313595	
-0.13434126	0.060717722	
-0.13383246	0.060061562	
-0.13342077	0.05942398	
-0.13317904	0.059147621	
-0.13307453	0.059024152	
-0.13303759	0.058834097	
-0.1329088	0.058588602	
-0.13280746	0.058345897	
-0.1326829	0.058190116	
-0.13255834	0.057975595	
-0.13235777	0.057591559	
-0.13216776	0.057121325	
-0.13177508	0.056519876	
-0.13136233	0.055867536	
-0.13096859	0.055462337	
-0.13073108	0.055282089	
-0.13056851	0.055222832	
-0.13051573	0.055169254	
-0.13046929	0.055138696	
-0.13046929	0.055094821	
-0.13048512	0.054966088	
-0.13039328	0.054752908	
-0.13021383	0.054590004	
-0.13017688	0.054524859	
-0.13007449	0.054449291	
-0.13004282	0.054434528	
-0.13001537	0.054426786	
-0.13000904	0.054454246	
-0.13000271	0.054421934	
-0.12997843	0.054406242	
-0.12995626	0.054399635	
-0.12994148	0.054322002	
-0.12993726	0.054202353	
-0.12984542	0.053974308	
-0.12968814	0.053584597	
-0.12934717	0.053226989	
-0.12914872	0.05291842	
-0.12897349	0.052712261	
-0.12879614	0.052581566	
-0.12866103	0.052420517	
-0.12856074	0.052262671	
-0.12849002	0.052109574	
-0.12840979	0.052011397	
-0.12824512	0.051674439	
-0.12780704	0.051080114	
-0.12732568	0.050395771	
-0.12681265	0.049750346	
-0.12623101	0.048974018	
-0.12577077	0.048391362	
-0.12534219	0.047792185	
-0.1249706	0.04735127	
-0.12482071	0.047264966	
-0.12477004	0.047207051	
-0.12464336	0.047038053	
-0.12448502	0.046723394	
-0.12434885	0.046525802	
-0.12428974	0.046495658	
-0.12424118	0.046360833	
-0.12413984	0.046098613	
-0.1239815	0.045777347	
-0.1238126	0.045537945	
-0.12365426	0.045276142	
-0.12348114	0.045074935	
-0.12338824	0.044739112	
-0.122985	0.044000053	
-0.12237591	0.043188319	
-0.12196634	0.042610306	
-0.12162538	0.042232157	
-0.12141531	0.042074827	
-0.12130764	0.041946197	
-0.12108174	0.041687487	
-0.12089912	0.041364878	
-0.12078089	0.041313984	
-0.12075027	0.04130779	
-0.12075133	0.041217975	
-0.12068377	0.041068285	
-0.12030375	0.040574718	
-0.1198794	0.039840716	
-0.11964505	0.039499113	
-0.11955849	0.039459058	
-0.11951627	0.039481976	
-0.11948671	0.039491267	
-0.11945926	0.039421996	
-0.11944448	0.039354687	
-0.11937059	0.039141611	
-0.11924497	0.038941955	
-0.11918903	0.038866284	
-0.11912463	0.038726087	
-0.11895574	0.038391916	
-0.11861583	0.03787564	
-0.11839415	0.037687647	
-0.11829915	0.037576773	
-0.11815981	0.037267792	
-0.11780301	0.036777014	
-0.11734699	0.036290674	
-0.11721504	0.036126118	
-0.11710948	0.036113524	
-0.11681602	0.035628213	
-0.116531	0.035274738	
-0.1162291	0.034782824	
-0.11599686	0.034503056	
-0.11580896	0.034296071	
-0.11560312	0.034088259	
-0.11542155	0.033740358	
-0.11520199	0.033439324	
-0.11493281	0.033039703	
-0.11458341	0.032441866	
-0.11386454	0.031179202	
-0.11282582	0.028761131	
-0.11184938	0.026066801	
-0.11118962	0.024661877	
-0.11107878	0.024255339	
-0.11104078	0.024382834	
-0.11092678	0.024086859	
-0.11086133	0.023920032	
-0.1105552	0.022719308	
-0.11010657	0.020675049	
-0.10975188	0.019143249	
-0.10955448	0.018502781	
-0.10951965	0.018505362	
-0.10948798	0.018485954	
-0.10948481	0.018462932	
-0.1094732	0.018481618	
-0.10946476	0.01844786	
-0.10945842	0.018414722	
-0.1094352	0.018333063	
-0.10937081	0.017469192	
-0.10920297	0.016907079	
-0.10909107	0.016313169	
-0.10879972	0.014966469	
-0.10858543	0.014453908	
-0.10847354	0.014148437	
-0.10837853	0.013909035	
-0.10818008	0.013101943	
-0.10764383	0.011433771	
-0.10711814	0.010352798	
-0.10698091	0.010232324	
-0.10688273	0.009981773	
-0.10666739	0.009463844	
-0.10643516	0.008904724	
-0.10615436	0.008509026	
-0.10592424	0.007958783	
-0.10556322	0.007301074	
-0.10527187	0.006784797	
-0.10509453	0.006499663	
-0.10494358	0.006174162	
-0.1047789	0.005859812	
-0.10465012	0.005621753	
-0.10451078	0.005319791	
-0.10428277	0.004871546	
-0.10408851	0.004556784	
-0.10395129	0.004417313	
-0.10389006	0.004327499	
-0.10383728	0.004274333	
-0.10374016	0.004040195	
-0.1035966	0.003801	
-0.10347415	0.003594015	
-0.10337598	0.003415212	
-0.10327781	0.003305371	
-0.10320708	0.00321153	
-0.10310996	0.003005061	
-0.10291573	0.002722507	
-0.1026835	0.002504476	
-0.10241748	0.002264765	
-0.10213986	0.002057984	
-0.10186434	0.00190499	
-0.10173028	0.001851205	
-0.10164478	0.001836339	
-0.10159939	0.001818169	
-0.1014896	0.00170554	
-0.10124892	0.00153128	
-0.10101669	0.001436511	
-0.10075912	0.001356504	
-0.10058811	0.001262251	
-0.10023554	0.0011553	
-0.09985341	0.001064143	
-0.09953989	0.00100499	
-0.09920843	0.000952856	
-0.09894664	0.000897832	
-0.09869751	0.000814935	
-0.09839561	0.000741948	
-0.09807998	0.000678149	
-0.09738328	0.000581005	
-0.09659579	0.000509463	
-0.09610916	0.000440606	
-0.09504721	0.0003415	
-0.09398949	0.000266965	
-0.09340997	0.000235375	
-0.09317985	0.000224535	
-0.09297717	0.000219167	
-0.09277766	0.000208224	
-0.09265943	0.000196352	
-0.09234064	0.000184377	
-0.0921253	0.000182725	
-0.09199862	0.000172299	
-0.09190995	0.00016786	
-0.09166083	0.00015351	
-0.09115202	0.000130592	
-0.09045638	0.0001085	
-0.08957811	0.000100138	
-0.08858689	8.8369e-005	
-0.08778463	8.6924e-005	
-0.08635427	7.2677e-005	
-0.08549606	8.011e-005	
-0.08511816	8.011e-005	
-0.0850316	8.4652e-005	
-0.08479514	7.309e-005	
-0.08352524	7.0922e-005	
-0.08286652	7.8045e-005	
-0.08262162	7.8871e-005	
-0.08253083	7.5774e-005	
-0.0824295	7.66e-005	
-0.08196819	8.2794e-005	
-0.08152484	7.6807e-005	
-0.08122716	7.7426e-005	
-0.08050723	7.5671e-005	
-0.07930067	7.5052e-005	
-0.07802232	8.3001e-005	
-0.0763534	8.0007e-005	
-0.07510567	8.4033e-005	
-0.07445647	9.1879e-005	
-0.07395611	9.5699e-005	
-0.07357187	8.8885e-005	
-0.07346526	9.6318e-005	
-0.07319291	9.6731e-005	
-0.07246454	9.1053e-005	
-0.07059083	0.000103751	
-0.066399	0.000119855	
-0.0627677	0.000144322	
-0.06037568	0.000173847	
-0.05888094	0.000203785	
-0.05822646	0.000206469	
-0.0581589	0.000205747	
-0.05814201	0.000201411	
-0.05812301	0.000211115	
-0.05809345	0.000201411	
-0.05792033	0.000211321	
-0.05771343	0.000221129	
-0.05739569	0.000226807	
-0.05696923	0.000230213	
-0.05621974	0.00025788	
-0.05493929	0.000283586	
-0.05315847	0.000314143	
-0.05199414	0.000333861	
-0.05119926	0.000359876	
-0.05086041	0.000366999	
-0.05081819	0.000371542	
-0.05066196	0.000374329	
-0.05029144	0.000385788	
-0.05021754	0.000380007	
-0.05021543	0.000388988	
-0.05020699	0.00038744	
-0.05019854	0.000382278	
-0.05019432	0.000382381	
-0.0501901	0.000391053	
-0.05018799	0.000390537	
-0.05018799	0.000384343	
-0.05018165	0.000391776	
-0.05017954	0.000382072	
-0.05017743	0.000392602	
-0.05017532	0.000381555	
-0.05017743	0.000384962	
-0.05017743	0.00038331	
-0.05017743	0.000384136	
-0.05017638	0.000388679	
-0.05017743	0.000375981	
-0.05017321	0.000379388	
-0.05017532	0.000385788	
-0.05017532	0.000382897	
-0.05017532	0.000376497	
-0.05017321	0.000385995	
-0.05017004	0.000391569	
-0.05016899	0.000387543	
-0.05017321	0.000382278	
-0.0501711	0.000375671	
-0.05016899	0.000382278	
-0.05016899	0.000375258	
-0.05016899	0.000381452	
-0.0501711	0.000381039	
