#INFO
#COMMENT: 

#DATA:
-0.46068709	0.000334997	
-0.46013817	0.000320441	
-0.45943408	0.000326635	
-0.45864871	0.0003383	
-0.45817685	0.000340984	
-0.45767544	0.000342533	
-0.45697979	0.000337165	
-0.45651638	0.00036256	
-0.45606246	0.000403648	
-0.45569933	0.000446077	
-0.45545654	0.000488403	
-0.4552602	0.000531452	
-0.45505541	0.000559635	
-0.45484746	0.000585031	
-0.45451599	0.000622196	
-0.45414442	0.000619821	
-0.45341183	0.000639229	
-0.45284708	0.000657708	
-0.45222638	0.000655231	
-0.45191603	0.000661425	
-0.45154129	0.000658328	
-0.45115704	0.000655644	
-0.45067146	0.000637577	
-0.450321	0.000629732	
-0.45002863	0.000615485	
-0.44983123	0.000611253	
-0.44958105	0.000597006	
-0.44921581	0.000597832	
-0.44896668	0.000601445	
-0.44867956	0.000603407	
-0.44848532	0.000602684	
-0.44832065	0.000613214	
-0.44807152	0.00061404	
-0.447587	0.000610117	
-0.44719642	0.000610736	
-0.44702542	0.000619202	
-0.4469283	0.000633861	
-0.44686285	0.000639229	
-0.44661584	0.000660496	
-0.44639838	0.00068362	
-0.44620626	0.000746697	
-0.44613342	0.000804818	
-0.4460342	0.001028321	
-0.44581674	0.002250828	
-0.44563518	0.004094497	
-0.44532272	0.006741438	
-0.44509048	0.011016083	
-0.44478013	0.01634992	
-0.44448034	0.022487443	
-0.44421749	0.027680571	
-0.44403382	0.032102947	
-0.44389025	0.034808014	
-0.44385225	0.036544632	
-0.44374458	0.039716525	
-0.44363902	0.043821251	
-0.44341312	0.048186852	
-0.44326111	0.05527094	
-0.44313021	0.065902802	
-0.44297821	0.082167377	
-0.44286842	0.10474342	
-0.4371597	0.11250463	
-0.43698869	0.090215783	
-0.43672901	0.073524335	
-0.43661712	0.06699637	
-0.436501	0.062581215	
-0.43646089	0.059021778	
-0.43632788	0.052036587	
-0.4362561	0.050223058	
-0.4362181	0.04978431	
-0.43619065	0.046140943	
-0.43608087	0.039381941	
-0.43591408	0.034785302	
-0.43584441	0.032252534	
-0.43570191	0.026846328	
-0.43554568	0.0217362	
-0.43545067	0.017527313	
-0.43528283	0.013250085	
-0.43516566	0.010069626	
-0.4350052	0.006956992	
-0.43489542	0.005218415	
-0.4348173	0.0042637	
-0.43467163	0.002455955	
-0.43454496	0.001609429	
-0.43436339	0.001063937	
-0.43422616	0.00089298	
-0.43409316	0.000797798	
-0.43395804	0.000758775	
-0.43384087	0.000720372	
-0.43378492	0.000681762	
-0.43373953	0.000695389	
-0.43361496	0.000661012	
-0.43350729	0.000634171	
-0.43341651	0.000611149	
-0.4332835	0.000601858	
-0.43301538	0.000552512	
-0.43261847	0.000479628	
-0.43227012	0.000471473	
-0.4319186	0.00043565	
-0.43168848	0.000414281	
-0.43140346	0.000406125	
-0.43094955	0.000355747	
-0.43054419	0.000346456	
-0.43001322	0.000332725	
-0.42930596	0.000316621	
-0.42839606	0.000302684	
-0.42734573	0.000284102	
-0.42655085	0.00027192	
-0.42581192	0.000261493	
-0.42443224	0.000260048	
-0.4231729	0.000249931	
-0.42192728	0.000221438	
-0.42048426	0.000232278	
-0.41932837	0.000222264	
-0.41809964	0.000220613	
-0.41728787	0.000227942	
-0.41662706	0.000192223	
-0.41568123	0.000179009	
-0.41455807	0.000191397	
-0.41357001	0.000198417	
-0.4125239	0.000193668	
-0.41089721	0.000186442	
-0.40880816	6.8445e-005	
-0.40754461	0.000191294	
-0.406489	0.000211218	
-0.40577224	0.000187577	
-0.40532044	0.000189126	
-0.4050027	0.000161562	
-0.40464696	0.000181693	
-0.40428594	0.000176118	
-0.40366419	0.000176531	
-0.40311738	0.000171783	
-0.40238901	0.000178802	
-0.4019066	0.000172505	
-0.40153713	0.000169511	
-0.40122679	0.000166414	
-0.40080454	0.000187268	
-0.40014901	0.000177977	
-0.3990554	0.000177151	
-0.39715216	0.000166105	
-0.39524467	0.000191294	
-0.39370876	0.00016724	
-0.39175694	0.000152271	
-0.3896246	0.000143703	
-0.38722943	0.000141948	
-0.38469279	0.000134515	
-0.38203899	0.000135134	
-0.38019695	0.00013658	
-0.37840558	0.000127392	
-0.37621732	0.000123778	
-0.37485664	0.000122849	
-0.37405332	0.000117688	
-0.37354874	0.000116965	
-0.37296604	0.000115003	
-0.37248363	0.000113868	
-0.3716877	0.000112939	
-0.37106067	0.000114178	
-0.37047691	0.000106125	
-0.3697591	0.000107571	
-0.36887027	9.9931e-005	
-0.3678115	0.000106745	
-0.36653526	0.000102615	
-0.36534983	9.9312e-005	
-0.3637432	8.2588e-005	
-0.36168898	8.6717e-005	
-0.35939936	9.3531e-005	
-0.35711608	8.9608e-005	
-0.35540493	9.9415e-005	
-0.35415192	0.000101893	
-0.35295275	0.000110151	
-0.35180741	9.4976e-005	
-0.35036017	9.0847e-005	
-0.34870181	8.6304e-005	
-0.34617362	7.02e-005	
-0.34394842	6.8238e-005	
-0.34253812	0.000147109	
-0.3409262	7.02e-005	
-0.33963519	6.8961e-005	
-0.33800639	8.4033e-005	
-0.33609256	6.8651e-005	
-0.33404576	7.9904e-005	
-0.33226917	8.1246e-005	
-0.33083459	6.8032e-005	
-0.32899994	9.5182e-005	
-0.3273363	9.384e-005	
-0.32656781	7.8975e-005	
-0.32561038	7.1025e-005	
-0.32455582	8.0317e-005	
-0.32345165	8.0936e-005	
-0.32226409	5.9566e-005	
-0.32147555	6.5244e-005	
-0.32058251	6.4831e-005	
-0.31971796	4.6146e-005	
-0.3187278	6.1425e-005	
-0.31805221	5.936e-005	
-0.31734178	6.7928e-005	
-0.31646563	6.5967e-005	
-0.3157172	7.02e-005	
-0.31509228	5.1927e-005	
-0.31442302	5.616e-005	
-0.31330725	7.1645e-005	
-0.31194235	8.5478e-005	
-0.31067667	6.256e-005	
-0.30931704	8.3207e-005	
-0.30766713	6.8961e-005	
-0.3066928	5.5644e-005	
-0.30611643	6.7825e-005	
-0.30551051	6.4625e-005	
-0.30407594	5.8844e-005	
-0.30277228	9.4253e-005	
-0.3016375	5.8121e-005	
-0.3009028	6.8341e-005	
-0.29996647	6.4418e-005	
-0.29852134	6.958e-005	
-0.29654313	5.8947e-005	
-0.29414478	6.6896e-005	
-0.29230274	6.4006e-005	
-0.29028125	6.1528e-005	
-0.28846454	6.5967e-005	
-0.28668795	6.9167e-005	
-0.28475302	6.2973e-005	
-0.28381036	0.000103544	
-0.28272941	6.6173e-005	
-0.2811439	5.2134e-005	
-0.28013473	6.2663e-005	
-0.27952037	5.2237e-005	
-0.27865793	5.936e-005	
-0.27749254	6.3076e-005	
-0.27654249	6.4831e-005	
-0.27566211	6.1218e-005	
-0.27457483	5.5747e-005	
-0.27273385	6.4728e-005	
-0.27151568	5.8534e-005	
-0.27130878	6.1734e-005	
-0.27123488	4.4804e-005	
-0.27117155	6.8651e-005	
-0.27110821	5.0998e-005	
-0.27107549	0.000113661	
-0.27102376	5.936e-005	
-0.27049173	4.3255e-005	
-0.26997554	5.1101e-005	
-0.26989637	5.616e-005	
-0.26984253	5.9463e-005	
-0.26982564	5.9463e-005	
-0.26963352	5.9463e-005	
-0.26959024	7.9697e-005	
-0.26953852	6.1941e-005	
-0.26953219	5.7089e-005	
-0.2695343	7.4432e-005	
-0.26948785	7.02e-006	
-0.26934218	8.2588e-005	
-0.2693084	6.1631e-005	
-0.26929995	6.2663e-005	
-0.26855997	5.4921e-005	
-0.26803639	6.669e-005	
-0.2678126	6.2973e-005	
-0.26733757	6.5348e-005	
-0.26575521	6.3593e-005	
-0.26419819	7.0819e-005	
-0.2634297	6.3696e-005	
-0.2627235	3.9642e-005	
-0.26206269	5.5024e-005	
-0.26124038	7.8355e-005	
-0.25995887	8.2897e-005	
-0.25834273	5.1514e-005	
-0.25740535	6.3283e-005	
-0.2565218	8.2381e-005	
-0.25535746	6.8341e-005	
-0.25425857	4.3255e-005	
-0.25350487	5.9153e-005	
-0.25285567	7.1232e-005	
-0.25225819	8.6304e-005	
-0.25162271	7.2058e-005	
-0.25069483	6.1012e-005	
-0.24982923	6.6793e-005	
-0.2492117	0.000102409	
-0.248534	7.0303e-005	
-0.24798719	6.8548e-005	
-0.24742666	5.0688e-005	
-0.24669196	5.0069e-005	
-0.24580525	7.6187e-005	
-0.24486259	6.7928e-005	
-0.24395793	8.073e-005	
-0.24292343	7.4535e-005	
-0.24164087	8.4033e-005	
-0.24075626	8.7337e-005	
-0.23992973	8.9195e-005	
-0.23882767	8.362e-005	
-0.23777945	9.5802e-005	
-0.23709753	7.2987e-005	
-0.23653489	8.3827e-005	
-0.23613165	8.7956e-005	
-0.2356144	8.6098e-005	
-0.23547928	9.8692e-005	
-0.23540327	6.5244e-005	
-0.23535155	8.1452e-005	
-0.23534838	9.5389e-005	
-0.2353241	6.8754e-005	
-0.23523438	6.2663e-005	
-0.23494831	8.4343e-005	
-0.23477096	7.1025e-005	
-0.23406793	8.4549e-005	
-0.23351479	0.000101789	
-0.23330894	7.7116e-005	
-0.23296482	7.8871e-005	
-0.23196832	8.5375e-005	
-0.2314099	8.1555e-005	
-0.23117239	7.278e-005	
-0.23065409	8.9608e-005	
-0.23027195	8.5478e-005	
-0.23003233	8.6924e-005	
-0.22965443	9.1259e-005	
-0.22928708	7.8149e-005	
-0.22903162	7.4123e-005	
-0.22887328	8.1968e-005	
-0.22879939	8.8885e-005	
-0.22876983	8.2278e-005	
-0.22876772	9.1879e-005	
-0.22866427	8.8988e-005	
-0.22820825	7.7529e-005	
-0.22791584	8.6924e-005	
-0.22737643	9.5079e-005	
-0.22696368	9.1982e-005	
-0.22653088	9.2189e-005	
-0.22613608	9.8692e-005	
-0.22592391	9.1466e-005	
-0.22575079	9.1259e-005	
-0.225641	9.4769e-005	
-0.22560511	9.6008e-005	
-0.22554705	9.3531e-005	
-0.22553122	9.0743e-005	
-0.225527	9.9828e-005	
-0.22551327	0.000103854	
-0.22553122	9.6731e-005	
-0.22542566	9.6215e-005	
-0.22527154	9.7866e-005	
-0.22510475	9.0434e-005	
-0.22486618	9.4873e-005	
-0.22440066	9.5802e-005	
-0.22375252	9.766e-005	
-0.22321627	9.7041e-005	
-0.22301781	0.000103338	
-0.22291964	0.000111597	
-0.22266629	0.000111081	
-0.22231583	0.000106538	
-0.22164552	0.000113042	
-0.22102376	0.000119752	
-0.22068914	0.000115313	
-0.22055824	0.000109326	
-0.22035767	0.000113971	
-0.22016344	0.000113558	
-0.21990165	0.000116449	
-0.21941396	0.000118823	
-0.21897588	0.000112319	
-0.21866553	0.000123262	
-0.21840374	0.000128527	
-0.21823484	0.000132037	
-0.21791816	0.000136373	
-0.21744841	0.000142774	
-0.21685938	0.000159911	
-0.21625241	0.000172402	
-0.21585866	0.0001851	
-0.21547759	0.000203166	
-0.21511868	0.000216586	
-0.21476822	0.00023424	
-0.21425519	0.000253854	
-0.21395857	0.000257054	
-0.21380867	0.000281211	
-0.21369255	0.000298142	
-0.21344765	0.000306401	
-0.21318375	0.000325396	
-0.21281428	0.000373297	
-0.21250182	0.000398796	
-0.21216297	0.000418823	
-0.21196452	0.000445767	
-0.21176606	0.000466414	
-0.21145044	0.000518445	
-0.21127415	0.00053073	
-0.2108878	0.00059329	
-0.21054789	0.000636132	
-0.21032304	0.000668238	
-0.21009926	0.000701893	
-0.20992825	0.000739986	
-0.20966012	0.000783861	
-0.20925054	0.000842292	
-0.20879559	0.000887199	
-0.20839445	0.000955437	
-0.20804716	0.000976291	
-0.20786559	0.001008809	
-0.20772942	0.001042361	
-0.20752252	0.001060737	
-0.20747185	0.001074673	
-0.20728184	0.001100688	
-0.20714883	0.001136717	
-0.20698522	0.001167481	
-0.20683532	0.00119267	
-0.20664742	0.001211356	
-0.20643841	0.001230351	
-0.20611539	0.001263799	
-0.20584305	0.001294253	
-0.20553375	0.001323262	
-0.2051759	0.001359188	
-0.20466604	0.001396043	
-0.20436414	0.001420922	
-0.20402212	0.001440434	
-0.20385111	0.001449312	
-0.20370649	0.001457158	
-0.20349326	0.001457984	
-0.20322935	0.001471507	
-0.20289789	0.001480592	
-0.20273111	0.001479663	
-0.20260866	0.001471714	
-0.20246932	0.001473366	
-0.20225503	0.001475017	
-0.20208296	0.001467584	
-0.20167655	0.001457674	
-0.2011213	0.001436201	
-0.20078562	0.001424639	
-0.20068639	0.001414522	
-0.2006505	0.001414315	
-0.20060405	0.001417619	
-0.2004816	0.001401308	
-0.20034015	0.001399553	
-0.20032748	0.001397591	
-0.20018814	0.001382726	
-0.19988518	0.001356194	
-0.1995495	0.001342877	
-0.19948405	0.001332037	
-0.19944183	0.001326256	
-0.19938904	0.001328734	
-0.19932993	0.001324295	
-0.19930671	0.001316449	
-0.19933415	0.001317688	
-0.19909559	0.00129735	
-0.19897736	0.001289505	
-0.19895097	0.001287027	
-0.19876835	0.001271748	
-0.19866701	0.001254095	
-0.19850231	0.001234068	
-0.19839886	0.001229112	
-0.19826269	0.001216311	
-0.19818246	0.00119329	
-0.197927	0.001186683	
-0.19787211	0.001180282	
-0.19771166	0.001166449	
-0.19756176	0.001155403	
-0.19749209	0.001155609	
-0.19757021	0.00114384	
-0.19734642	0.001123813	
-0.19713319	0.001102443	
-0.19689673	0.0010883	
-0.19664549	0.001072299	
-0.19644598	0.001038335	
-0.19614619	0.001026669	
-0.19602374	0.001003957	
-0.19558461	0.000974123	
-0.19500613	0.00090671	
-0.19439071	0.000850757	
-0.19367078	0.000819683	
-0.19350611	0.000811012	
-0.19343011	0.000811941	
-0.19337099	0.000811734	
-0.19303531	0.000781074	
-0.19281469	0.000770957	
-0.19256028	0.000742154	
-0.19172213	0.000664522	
-0.19108032	0.000604026	
-0.19059685	0.000583792	
-0.19012605	0.000560874	
-0.19002471	0.000560564	
-0.18992126	0.000555196	
-0.18943568	0.000538472	
-0.18910527	0.00053042	
-0.18863341	0.000517825	
-0.18829034	0.000511528	
-0.18810878	0.000515038	
-0.18807078	0.000512767	
-0.18800745	0.000508534	
-0.18780266	0.000506366	
-0.18745325	0.00049914	
-0.1870194	0.000490675	
-0.18678399	0.000484687	
-0.18670377	0.000483345	
-0.18645253	0.000482416	
-0.18605985	0.000479835	
-0.18578011	0.000480248	
-0.18559854	0.000478286	
-0.18539164	0.000476738	
-0.18514358	0.000476222	
-0.18496307	0.000474157	
-0.18472872	0.000476118	
-0.18435398	0.000483551	
-0.18402041	0.000484893	
-0.18371217	0.000480041	
-0.18343138	0.000489849	
-0.18299013	0.000491294	
-0.18247394	0.000499862	
-0.18222059	0.000498933	
-0.18198941	0.000504508	
-0.18179201	0.000510083	
-0.18165901	0.000513593	
-0.18147111	0.000521335	
-0.18125999	0.000512457	
-0.18117554	0.000521335	
-0.18108053	0.000527529	
-0.18087997	0.000536924	
-0.1806984	0.000532691	
-0.18056223	0.000533827	
-0.18056856	0.000532278	
-0.18047567	0.000548176	
-0.18027088	0.000555093	
-0.17994786	0.000565416	
-0.17984864	0.00056552	
-0.17959107	0.000569236	
-0.17920683	0.000586683	
-0.17885847	0.000599381	
-0.1786843	0.000608362	
-0.17861041	0.000620028	
-0.17845206	0.000612182	
-0.17830006	0.000627977	
-0.17829372	0.000631177	
-0.17813327	0.000644494	
-0.17791581	0.000642636	
-0.1778282	0.000643978	
-0.17771736	0.00064914	
-0.17777647	0.000657089	
-0.17760758	0.000666483	
-0.17730355	0.000673193	
-0.17683592	0.000699725	
-0.17663535	0.000712526	
-0.17647067	0.00072223	
-0.176382	0.000722746	
-0.17603576	0.000740709	
-0.17582675	0.000760117	
-0.17559452	0.000768686	
-0.17551851	0.000764659	
-0.17546996	0.000777151	
-0.17537495	0.000789539	
-0.17525567	0.000806676	
-0.17508677	0.000810496	
-0.17487354	0.000824845	
-0.17472786	0.000821955	
-0.1747437	0.000829491	
-0.17472258	0.000839608	
-0.17457163	0.000850344	
-0.17439007	0.000886993	
-0.17403327	0.000913421	
-0.17387704	0.000932932	
-0.17378837	0.000934584	
-0.17357197	0.00095936	
-0.1733524	0.000981968	
-0.17331123	0.000987853	
-0.17322784	0.001005919	
-0.17314761	0.001001893	
-0.17301461	0.001022333	
-0.17279082	0.001053097	
-0.17255225	0.001085203	
-0.17217223	0.001124639	
-0.17206033	0.001154783	
-0.1717426	0.00122075	
-0.17123379	0.00133596	
-0.17076932	0.001380145	
-0.17065321	0.001390365	
-0.1704632	0.001418858	
-0.17022357	0.001451996	
-0.16996178	0.001484928	
-0.16973166	0.001544907	
-0.16951631	0.001558637	
-0.16943187	0.001577116	
-0.16936642	0.001576187	
-0.16932208	0.001610874	
-0.16897373	0.001704508	
-0.16882806	0.00172371	
-0.16876472	0.001721645	
-0.16872672	0.001730626	
-0.16866338	0.001764694	
-0.16842587	0.001843152	
-0.16812396	0.001894666	
-0.16785162	0.001986649	
-0.16754971	0.00205468	
-0.16737237	0.002076979	
-0.16725203	0.002094942	
-0.16716969	0.002108674	
-0.16701981	0.002208605	
-0.16674746	0.002267759	
-0.16652367	0.002354373	
-0.16625027	0.002465866	
-0.16599692	0.002640126	
-0.16568024	0.00276504	
-0.16554512	0.002778151	
-0.16549234	0.002829149	
-0.16541211	0.002878082	
-0.16532133	0.002941778	
-0.1651651	0.00308961	
-0.16491703	0.003254166	
-0.16470591	0.003263044	
-0.16467635	0.003308261	
-0.16457079	0.003418929	
-0.16437867	0.003496252	
-0.16417388	0.003646148	
-0.16391631	0.003755164	
-0.16381709	0.003804201	
-0.16379808	0.003918894	
-0.16357746	0.004038543	
-0.16347718	0.004166141	
-0.16321961	0.004415765	
-0.16281742	0.004638132	
-0.16268864	0.004657128	
-0.16262108	0.004753239	
-0.16253874	0.004772441	
-0.16249018	0.004792262	
-0.16241207	0.004866178	
-0.16233184	0.004949179	
-0.16217561	0.00519911	
-0.16193704	0.0054573	
-0.1617977	0.00553008	
-0.16169109	0.005581388	
-0.16165625	0.005681113	
-0.16145991	0.005887685	
-0.16122873	0.00605699	
-0.16100916	0.006332319	
-0.16076004	0.006706545	
-0.16058481	0.006886483	
-0.16034202	0.007089029	
-0.16010767	0.007337928	
-0.15992611	0.007650421	
-0.15966643	0.00783996	
-0.15952603	0.007927503	
-0.15938458	0.008148838	
-0.15917135	0.008298115	
-0.15892222	0.008576748	
-0.158842	0.008608337	
-0.15880188	0.008743162	
-0.15869421	0.008955413	
-0.15848942	0.00922279	
-0.15831841	0.009395812	
-0.15822341	0.009520107	
-0.15800384	0.0098486	
-0.15780539	0.010168008	
-0.15759532	0.010423514	
-0.15747709	0.01042785	
-0.1574222	0.010563399	
-0.15733353	0.010861438	
-0.15722374	0.010969318	
-0.15710552	0.011155863	
-0.15704112	0.011432222	
-0.15673816	0.012241583	
-0.15644469	0.012533634	
-0.15630324	0.012558514	
-0.1562378	0.012802769	
-0.15584616	0.013522935	
-0.15556537	0.013880543	
-0.15544186	0.013913887	
-0.15538381	0.014055422	
-0.15530358	0.014321251	
-0.1552033	0.014510377	
-0.15499956	0.014973592	
-0.15465121	0.015463338	
-0.15449076	0.015557694	
-0.15440209	0.015837773	
-0.15412024	0.0165567	
-0.15375078	0.017335916	
-0.15358399	0.017419949	
-0.1535101	0.017814099	
-0.15342354	0.018027592	
-0.15337709	0.018086952	
-0.15330109	0.018613242	
-0.15306041	0.01936861	
-0.15294218	0.019322258	
-0.15289784	0.019426422	
-0.15280812	0.019924223	
-0.15249882	0.02058699	
-0.15222753	0.021203096	
-0.15213675	0.021178836	
-0.15210719	0.021278664	
-0.15206497	0.021645766	
-0.15187918	0.022374814	
-0.15165328	0.02320957	
-0.15142316	0.023883074	
-0.15129226	0.02419856	
-0.15119726	0.024750762	
-0.15103892	0.025312981	
-0.15091541	0.025391956	
-0.1508658	0.025686175	
-0.15078135	0.025877882	
-0.15068951	0.026263775	
-0.15059661	0.02686171	
-0.15043616	0.02728735	
-0.15034538	0.027448603	
-0.15033693	0.027902319	
-0.15018282	0.02857634	
-0.14998014	0.028958619	
-0.1498788	0.029381161	
-0.14979013	0.029421939	
-0.14970779	0.029799571	
-0.14956212	0.030508176	
-0.14945656	0.030771735	
-0.14938266	0.031208004	
-0.14931088	0.031578515	
-0.1492296	0.031924557	
-0.14908393	0.032486361	
-0.14894458	0.032956599	
-0.14887069	0.033190528	
-0.14877991	0.033560524	
-0.14863635	0.034170641	
-0.14839356	0.034763416	
-0.14817293	0.035394903	
-0.1478932	0.03604766	
-0.14755329	0.036780524	
-0.14719755	0.037413353	
-0.14706771	0.037773747	
-0.14689142	0.038188234	
-0.14672464	0.038781111	
-0.14654941	0.039158851	
-0.14633406	0.039771859	
-0.146219	0.040003107	
-0.14616305	0.040130809	
-0.14610183	0.040369487	
-0.14603638	0.041083977	
-0.14591393	0.041476062	
-0.14573236	0.041765429	
-0.14569858	0.042123244	
-0.14557085	0.042925275	
-0.14534495	0.043961547	
-0.14509583	0.044654563	
-0.14498605	0.045012684	
-0.14488893	0.044886635	
-0.14484037	0.045291524	
-0.14474959	0.045744312	
-0.14459969	0.046551921	
-0.14429146	0.048109839	
-0.14389455	0.049642672	
-0.14358947	0.050403101	
-0.1435008	0.050498077	
-0.14340369	0.050812323	
-0.14308912	0.052002003	
-0.14268376	0.053102075	
-0.14248108	0.053534528	
-0.14236497	0.053970592	
-0.14212323	0.054784188	
-0.14189944	0.055745513	
-0.1417221	0.055991934	
-0.14169465	0.055956524	
-0.14162921	0.056094859	
-0.14160176	0.056504494	
-0.14146453	0.057074043	
-0.14122385	0.057751782	
-0.14102329	0.058151919	
-0.14094412	0.058355292	
-0.14073194	0.059055949	
-0.14060526	0.059436162	
-0.14049337	0.059746795	
-0.14041314	0.059927667	
-0.14034347	0.060163764	
-0.14022525	0.060538609	
-0.14009118	0.061054992	
-0.13993706	0.061570856	
-0.1397365	0.062369894	
-0.13953804	0.063136724	
-0.13944093	0.0633115	
-0.13938604	0.063433937	
-0.13928681	0.063644639	
-0.13918125	0.064077093	
-0.13908413	0.064465668	
-0.13890045	0.064872	
-0.1387875	0.065172313	
-0.13857216	0.065428128	
-0.13837054	0.065971143	
-0.13814253	0.066680885	
-0.13793879	0.067239491	
-0.13774878	0.067810483	
-0.13763056	0.068079925	
-0.13748277	0.068337293	
-0.13719142	0.069279517	
-0.13691485	0.069931135	
-0.13677762	0.070319817	
-0.13660134	0.070673499	
-0.13638177	0.071305609	
-0.13613264	0.072057468	
-0.13572835	0.073058536	
-0.13553727	0.073558196	
-0.13547393	0.073552002	
-0.13544015	0.073708815	
-0.13519525	0.074665805	
-0.13449327	0.076041615	
-0.13420192	0.076269558	
-0.13420404	0.076264809	
-0.13414914	0.076345332	
-0.13417237	0.076427507	
-0.13410692	0.076463536	
-0.13388946	0.076696127	
-0.13334899	0.078286565	
-0.13328354	0.078223282	
-0.13325293	0.078094136	
-0.13324237	0.078074005	
-0.1332371	0.078104046	
-0.13322337	0.078197267	
-0.13321915	0.078064714	
-0.1329088	0.079194103	
-0.13270612	0.079300125	
-0.13268712	0.079335432	
-0.13267446	0.079134124	
-0.13247178	0.079971672	
-0.132362	0.080198169	
-0.13223849	0.080563104	
-0.13211921	0.08093506	
-0.13179408	0.081848485	
-0.13106043	0.082748485	
-0.13070152	0.083070992	
-0.13056218	0.083019272	
-0.13033417	0.083201378	
-0.12979053	0.084048008	
-0.12911916	0.084792124	
-0.12848157	0.085297256	
-0.12808572	0.085335143	
-0.12798227	0.085175026	
-0.12796644	0.085077262	
-0.12750513	0.085105549	
-0.1267926	0.085041233	
-0.12613706	0.084848181	
-0.12550581	0.084356887	
-0.12511839	0.084099316	
-0.12501705	0.084141333	
-0.12499911	0.084052448	
-0.12492838	0.08406752	
-0.12481648	0.083940231	
-0.12464548	0.083574881	
-0.12443858	0.083092362	
-0.12427285	0.082819098	
-0.12407228	0.082455092	
-0.12380627	0.08183589	
-0.12355925	0.081429864	
-0.12339247	0.080915756	
-0.12317501	0.080607598	
-0.12284355	0.080042078	
-0.12253848	0.079413271	
-0.12245403	0.079268329	
-0.12240336	0.079187496	
-0.1223168	0.078933333	
-0.12211201	0.0785366	
-0.12187133	0.078172388	
-0.12157365	0.077592411	
-0.12086745	0.076400356	
-0.12002507	0.074225401	
-0.11947193	0.073122748	
-0.11929987	0.072703408	
-0.11927559	0.072749967	
-0.11921436	0.072484344	
-0.11872139	0.071015413	
-0.11797191	0.068739496	
-0.11724248	0.066459033	
-0.11647083	0.064486831	
-0.11584697	0.063444364	
-0.11543106	0.062491401	
-0.11504365	0.061489714	
-0.11472485	0.060683241	
-0.11446729	0.059944081	
-0.11427517	0.059684648	
-0.11423084	0.0596512	
-0.11416961	0.059452473	
-0.1141105	0.059276148	
-0.11392471	0.058524803	
-0.11341485	0.057389115	
-0.11284904	0.055825726	
-0.11241624	0.054371555	
-0.11210906	0.053548671	
-0.1120035	0.053291511	
-0.11194861	0.053124477	
-0.11183671	0.052629776	
-0.11167837	0.052156236	
-0.11143558	0.05155479	
-0.11130469	0.050959846	
-0.11119701	0.05081284	
-0.11116112	0.05063445	
-0.11102706	0.049946905	
-0.11079377	0.049045973	
-0.11051087	0.048206363	
-0.11039792	0.047895627	
-0.11033669	0.047702474	
-0.11030291	0.047740981	
-0.11027335	0.0475469	
-0.11015935	0.046969505	
-0.109925	0.046032749	
-0.10962943	0.045070496	
-0.1093972	0.044315024	
-0.10923675	0.043813198	
-0.10908896	0.043476653	
-0.10898551	0.043150741	
-0.10878178	0.042671834	
-0.1086266	0.04242758	
-0.10855904	0.042297814	
-0.10852632	0.042291827	
-0.10846932	0.04210012	
-0.10831942	0.041645883	
-0.1080798	0.041053213	
-0.1077895	0.040494918	
-0.10755305	0.040011573	
-0.10735881	0.039592437	
-0.10719414	0.03926859	
-0.1069788	0.038823442	
-0.10674551	0.038460464	
-0.1065935	0.038235826	
-0.10638449	0.037873472	
-0.10600658	0.037244564	
-0.10568567	0.03679828	
-0.10554422	0.036682966	
-0.10542388	0.036453372	
-0.10504069	0.035764797	
-0.10466701	0.034942322	
-0.10445378	0.034689913	
-0.10439783	0.034647071	
-0.10428277	0.034381033	
-0.10403996	0.033813862	
-0.10377817	0.033226144	
-0.10351637	0.032567714	
-0.10318597	0.03197793	
-0.10280173	0.031284192	
-0.10247238	0.030732299	
-0.10226759	0.030423627	
-0.10202691	0.029953494	
-0.10172606	0.029369496	
-0.10129748	0.028518013	
-0.10059656	0.027598706	
-0.09993047	0.026873066	
-0.09931821	0.026037999	
-0.09877985	0.025242266	
-0.09827527	0.024631423	
-0.09801559	0.024210019	
-0.09772952	0.023827533	
-0.09760601	0.023676295	
-0.09738539	0.023288132	
-0.0971806	0.023071442	
-0.09712465	0.023102413	
-0.09709193	0.023144739	
-0.09704337	0.022896149	
-0.09684386	0.022555784	
-0.09676469	0.022609466	
-0.09671613	0.022535137	
-0.09668869	0.02238555	
-0.0962865	0.021714933	
-0.09568691	0.020485304	
-0.09534067	0.01980168	
-0.09499021	0.019059009	
-0.09460914	0.018278349	
-0.09432412	0.017792833	
-0.09402011	0.017356666	
-0.09381532	0.016961897	
-0.09372876	0.016994829	
-0.0936971	0.016990286	
-0.09369288	0.016803638	
-0.0934332	0.016188358	
-0.09323263	0.015999439	
-0.09318829	0.015962377	
-0.09316402	0.015911276	
-0.09297401	0.015105423	
-0.09238075	0.013955491	
-0.09213374	0.013577752	
-0.09202396	0.013399982	
-0.09197751	0.013351978	
-0.09181917	0.013045681	
-0.09144337	0.012254281	
-0.0911573	0.011695782	
-0.09104118	0.011553937	
-0.09089234	0.011066255	
-0.09077728	0.010991513	
-0.09074772	0.010961575	
-0.09073083	0.01097417	
-0.09072028	0.010963743	
-0.09070761	0.010968905	
-0.09065905	0.010686765	
-0.09038671	0.01015624	
-0.09013969	0.009710782	
-0.08997079	0.009425853	
-0.08949366	0.00851109	
-0.08880012	0.007490407	
-0.08848555	0.00730097	
-0.08840849	0.007275678	
-0.08831877	0.007188238	
-0.08823432	0.007028018	
-0.08812031	0.006759504	
-0.08776351	0.006442264	
-0.08747217	0.005977293	
-0.08725682	0.005853721	
-0.08692642	0.005449144	
-0.08667096	0.005171856	
-0.08659073	0.005174746	
-0.08654851	0.005174127	
-0.08651684	0.005127671	
-0.08635005	0.004856887	
-0.08586342	0.004319757	
-0.08548762	0.004066004	
-0.08537784	0.004021613	
-0.08507382	0.003765281	
-0.08469802	0.00336504	
-0.08443834	0.003168481	
-0.084261	0.003034999	
-0.08399921	0.002824607	
-0.08365191	0.002547215	
-0.08343657	0.002402583	
-0.08325289	0.002299452	
-0.08313676	0.00220303	
-0.08287285	0.00200936	
-0.08254984	0.001820131	
-0.08243583	0.001745183	
-0.08232816	0.001683861	
-0.08214131	0.00158362	
-0.08197453	0.001490296	
-0.08171063	0.001371163	
-0.08145095	0.001268651	
-0.08122505	0.001193496	
-0.08112582	0.001150447	
-0.08093581	0.001054026	
-0.08073735	0.000959567	
-0.08049351	0.000870475	
-0.08010504	0.00075351	
-0.0797018	0.000664935	
-0.07949068	0.000637577	
-0.07939567	0.000637474	
-0.07927006	0.000608878	
-0.07909377	0.000578424	
-0.07901143	0.000571404	
-0.07877392	0.000549312	
-0.07837912	0.000489642	
-0.07788298	0.000452168	
-0.07772148	0.000441225	
-0.07770142	0.000433482	
-0.07746391	0.000420372	
-0.07615284	0.000349346	
-0.07536641	0.000324983	
-0.07531468	0.000332003	
-0.07529779	0.000326635	
-0.07519223	0.000322402	
-0.0750075	0.000318892	
-0.07484072	0.000318479	
-0.07453881	0.000309911	
-0.07394556	0.000302891	
-0.07334703	0.000300103	
-0.07273055	0.000297006	
-0.07191984	0.000292154	
-0.07093707	0.000300826	
-0.0696545	0.000303613	
-0.06865801	0.00031435	
-0.06832549	0.00031786	
-0.06819882	0.000313317	
-0.0678758	0.000318892	
-0.06718121	0.000319305	
-0.06654468	0.000325189	
-0.06638106	0.000331693	
-0.06617521	0.000333345	
-0.06589864	0.00033479	
-0.06571285	0.000336442	
-0.06548695	0.00034181	
-0.0650626	0.000344081	
-0.06470686	0.000351617	
-0.06438384	0.000358844	
-0.06404605	0.000357915	
-0.06382437	0.000360289	
-0.06357102	0.000368961	
-0.06301788	0.000384652	
-0.06226101	0.000394666	
-0.06176275	0.000401996	
-0.06156958	0.00041841	
-0.0614524	0.000418101	
-0.06116528	0.000422333	
-0.06073775	0.000429456	
-0.06038729	0.000435547	
-0.05993127	0.000453097	
-0.05941719	0.000454852	
-0.05900761	0.000472918	
-0.05865926	0.00047395	
-0.05831724	0.000470337	
-0.05803645	0.000483861	
-0.05769549	0.0004915	
-0.05720146	0.00050203	
-0.05682144	0.00050905	
-0.05650476	0.000515657	
-0.05603607	0.000532691	
-0.05542276	0.000549931	
-0.05472817	0.00055788	
-0.05388262	0.000569339	
-0.05314158	0.000583586	
-0.05288507	0.000580385	
-0.05258739	0.000585238	
-0.05220526	0.000595561	
-0.0517429	0.000607949	
-0.05143888	0.000622299	
-0.05115493	0.000626841	
-0.05090158	0.000636442	
-0.05063662	0.000648314	
-0.05052367	0.000653372	
-0.05040122	0.000652237	
-0.05038327	0.000653476	
-0.05036533	0.000655747	
-0.05035688	0.00064883	
-0.05035055	0.000653166	
-0.05032944	0.000655644	
-0.05031044	0.000661838	
-0.05031044	0.000652856	
-0.05031044	0.000656882	
-0.05030622	0.000666793	
-0.05030199	0.00065616	
-0.05029988	0.000651101	
-0.05029566	0.000652443	
-0.05028721	0.000661838	
-0.05028827	0.000652856	
-0.0502851	0.000651101	
-0.05028299	0.000658534	
-0.05028088	0.000660805	
-0.05027877	0.000658844	
-0.05027666	0.000653785	
-0.05027455	0.000649656	
-0.05027138	0.000657399	
-0.05027032	0.000655231	
-0.05026821	0.000659773	
-0.05027032	0.000650482	
-0.05026821	0.00065616	
-0.0502661	0.000658224	
-0.05026399	0.000661218	
-0.05026188	0.000650792	
-0.05025977	0.00066318	
-0.05025766	0.000661218	
-0.0502566	0.000660599	
-0.05025555	0.000653269	
-0.05025555	0.000660909	
-0.0502566	0.000664935	
-0.05025343	0.000666174	
-0.05025132	0.000656676	
-0.05025343	0.000667412	
-0.05025132	0.000660083	
-0.05024921	0.000671955	
